-6.273351e-001,0.000000e+000
3.369140e-001,3.022138e-001
1.301163e+000,7.782608e-001
2.265412e+000,9.311219e-001
3.229661e+000,4.950294e-001
4.193911e+000,8.658096e-001
5.158160e+000,5.144291e-001
6.122409e+000,3.919210e-001
7.086658e+000,5.998738e-001
8.050907e+000,1.058216e+000
9.015156e+000,1.099627e+000
9.979405e+000,3.272250e-001
1.094365e+001,4.902195e-001
1.190790e+001,1.142834e+000
1.287215e+001,1.118124e+000
1.383640e+001,1.345293e+000
1.480065e+001,1.384329e+000
1.576490e+001,1.212020e+000
1.672915e+001,1.182523e+000
1.769340e+001,1.451226e+000
1.865765e+001,1.505114e+000
1.962190e+001,1.235339e+000
2.058615e+001,6.782594e-001
2.155039e+001,4.059022e-001
2.251464e+001,2.749052e-001
2.347889e+001,2.299074e-001
2.444314e+001,5.087504e-001
2.540739e+001,6.182213e-001
2.637164e+001,6.233966e-001
2.733589e+001,5.269868e-001
2.830014e+001,4.605641e-001
2.926439e+001,1.135401e+000
3.022864e+001,1.321572e+000
3.119289e+001,8.512554e-001
3.215714e+001,4.734751e-001
3.312138e+001,1.021441e+000
3.408563e+001,1.308335e+000
3.504988e+001,4.270278e-001
3.601413e+001,4.182127e-001
3.697838e+001,4.395187e-001
3.794263e+001,6.619580e-001
3.890688e+001,1.347179e+000
3.987113e+001,9.019542e-001
4.083538e+001,1.442895e+000
4.179963e+001,6.266735e-001
4.276387e+001,1.058300e+000
4.372813e+001,1.076885e+000
4.469238e+001,1.085471e+000
4.565662e+001,4.324202e-001
4.662087e+001,7.361744e-001
4.758512e+001,1.236502e+000
4.854937e+001,8.640729e-001
4.951362e+001,3.291884e-001
5.047787e+001,4.767818e-001
5.144212e+001,1.186815e-001
5.240637e+001,1.142038e+000
5.337062e+001,8.944582e-001
5.433487e+001,1.066459e+000
5.529911e+001,1.230922e+000
5.626336e+001,7.302578e-001
5.722761e+001,8.205702e-001
5.819186e+001,1.346025e+000
5.915611e+001,1.690431e+000
6.012036e+001,9.565842e-001
6.108461e+001,1.148009e+000
6.204886e+001,1.989939e+000
6.301311e+001,1.957679e+000
6.397736e+001,1.461008e+000
6.494160e+001,6.729133e-001
6.590585e+001,9.051406e-001
6.687010e+001,8.185404e-001
6.783435e+001,2.767911e-001
6.879860e+001,9.591359e-001
6.976285e+001,2.588124e-001
7.072710e+001,3.030173e-001
7.169135e+001,5.385814e-001
7.265560e+001,8.408051e-001
7.361985e+001,6.253317e-001
7.458410e+001,1.222040e+000
7.554835e+001,4.316938e-001
7.651260e+001,4.693886e-001
7.747684e+001,1.117665e+000
7.844109e+001,1.035773e+000
7.940534e+001,1.106257e+000
8.036959e+001,1.163312e+000
8.133384e+001,8.114882e-001
8.229809e+001,1.921409e-002
8.326234e+001,4.465665e-001
8.422659e+001,7.654672e-001
8.519083e+001,2.740268e-001
8.615509e+001,1.430869e-001
8.711934e+001,6.094919e-001
8.808359e+001,4.224683e-001
8.904784e+001,1.524387e+000
9.001208e+001,1.515251e+000
9.097633e+001,1.601109e+000
9.194058e+001,1.432374e+000
9.290483e+001,1.461613e+000
9.386908e+001,8.351561e-001
9.483333e+001,5.120324e-001
9.579758e+001,8.906654e-001
9.676183e+001,6.702225e-001
9.772607e+001,6.759547e-001
9.869032e+001,5.364709e-001
9.965457e+001,2.538835e-001
1.006188e+002,6.910905e-001
1.015831e+002,3.067791e-001
1.025473e+002,9.694558e-001
1.035116e+002,1.550341e+000
1.044758e+002,1.249255e+000
1.054401e+002,1.535918e+000
1.064043e+002,1.030575e+000
1.073686e+002,1.067226e+000
1.083328e+002,3.862663e-001
1.092971e+002,1.561863e+000
1.102613e+002,1.816859e+000
1.112256e+002,1.037090e+000
1.121898e+002,4.397353e-001
1.131541e+002,9.950657e-002
1.141183e+002,6.148415e-001
1.150826e+002,7.118414e-001
1.160468e+002,8.352615e-001
1.170111e+002,6.961778e-001
1.179753e+002,1.002088e+000
1.189396e+002,1.457437e+000
1.199038e+002,6.398535e-001
1.208681e+002,9.058829e-001
1.218323e+002,1.191604e+000
1.227966e+002,1.201722e+000
1.237608e+002,1.117463e+000
1.247251e+002,6.511120e-001
1.256893e+002,3.889484e-001
1.266535e+002,1.113846e+000
1.276178e+002,8.251376e-001
1.285820e+002,8.437840e-001
1.295463e+002,3.487153e-001
1.305105e+002,5.764740e-001
1.314748e+002,1.988685e+000
1.324390e+002,8.517844e+000
1.334033e+002,7.055200e+000
1.343675e+002,1.031153e+000
1.353318e+002,2.079700e-001
1.362960e+002,3.097790e-001
1.372603e+002,5.830937e-001
1.382245e+002,1.054578e+000
1.391888e+002,9.401594e-001
1.401530e+002,3.702430e-001
1.411173e+002,1.291887e+000
1.420815e+002,1.554049e+000
1.430458e+002,8.447354e-001
1.440100e+002,5.263740e-001
1.449743e+002,1.186288e+000
1.459385e+002,1.874338e-001
1.469028e+002,8.062327e-001
1.478670e+002,2.727400e-001
1.488313e+002,9.833471e-001
1.497955e+002,8.196335e-001
1.507598e+002,1.784115e-001
1.517240e+002,1.040658e+000
1.526883e+002,7.406326e-001
1.536525e+002,6.196883e-001
1.546168e+002,7.363152e-001
1.555810e+002,1.387312e+000
1.565453e+002,2.039987e+000
1.575095e+002,1.365083e+000
1.584738e+002,1.342768e+000
1.594380e+002,3.278798e+001
1.604023e+002,1.515001e+002
1.613665e+002,2.255573e+002
1.623308e+002,1.071226e+002
1.632950e+002,8.915603e+000
1.642593e+002,1.510429e+000
1.652235e+002,1.619289e+000
1.661878e+002,1.414721e+000
1.671520e+002,3.613689e-001
1.681163e+002,8.596575e-001
1.690805e+002,6.137288e-001
1.700448e+002,7.317752e-001
1.710090e+002,1.734821e+000
1.719733e+002,1.004281e+001
1.729375e+002,9.917395e+000
1.739018e+002,2.069429e+000
1.748660e+002,2.778123e-001
1.758303e+002,2.187377e-001
1.767945e+002,9.746707e-001
1.777588e+002,1.761612e+000
1.787230e+002,1.181145e+000
1.796873e+002,7.268946e-001
1.806515e+002,2.892517e-001
1.816158e+002,2.580455e-001
1.825800e+002,6.284344e-001
1.835443e+002,8.797120e-001
1.845085e+002,3.367135e-001
1.854727e+002,1.114294e+000
1.864370e+002,7.106388e-001
1.874012e+002,1.445317e+000
1.883655e+002,1.255413e+000
1.893297e+002,6.238350e-001
1.902940e+002,1.584323e+000
1.912582e+002,1.982926e+000
1.922225e+002,1.074976e+000
1.931867e+002,1.089263e+000
1.941510e+002,9.698768e-001
1.951152e+002,8.772832e-001
1.960795e+002,8.622370e-001
1.970437e+002,1.298144e+000
1.980080e+002,1.229552e+000
1.989722e+002,1.026204e+000
1.999365e+002,6.299652e-001
2.009007e+002,1.571309e+000
2.018650e+002,8.782999e-001
2.028292e+002,6.655818e-001
2.037935e+002,1.262372e+000
2.047577e+002,6.551492e-001
2.057220e+002,2.457864e-001
2.066862e+002,7.027000e-001
2.076505e+002,1.082319e+000
2.086147e+002,7.171376e-001
2.095790e+002,6.775207e-001
2.105432e+002,4.317801e-001
2.115075e+002,1.047511e+000
2.124717e+002,8.562010e-001
2.134360e+002,7.760582e-001
2.144002e+002,3.291630e-001
2.153645e+002,5.103968e-001
2.163287e+002,6.021360e-001
2.172930e+002,1.639274e+000
2.182572e+002,1.051353e+000
2.192215e+002,1.343971e+000
2.201857e+002,1.479129e+000
2.211500e+002,3.944290e-001
2.221142e+002,5.860763e-001
2.230785e+002,1.755643e+000
2.240427e+002,1.788784e+000
2.250070e+002,8.197235e-001
2.259712e+002,3.494423e-001
2.269355e+002,5.571287e-001
2.278997e+002,6.113969e-001
2.288640e+002,3.930825e-001
2.298282e+002,6.829917e-001
2.307924e+002,6.665270e-001
2.317567e+002,6.014783e-001
2.327210e+002,8.648440e-001
2.336852e+002,7.426447e-001
2.346495e+002,7.498293e-001
2.356137e+002,7.675564e-001
2.365780e+002,1.408158e+000
2.375422e+002,1.238245e+000
2.385065e+002,1.039358e+000
2.394707e+002,5.918761e-001
2.404350e+002,1.193867e+000
2.413992e+002,4.578968e-001
2.423634e+002,6.304032e-001
2.433277e+002,1.092991e+000
2.442919e+002,1.394130e+000
2.452562e+002,3.823534e-001
2.462204e+002,8.133875e-001
2.471847e+002,6.959004e-001
2.481489e+002,7.572509e-001
2.491132e+002,4.988936e-001
2.500774e+002,6.270238e-001
2.510417e+002,4.221539e-001
2.520059e+002,9.209709e-001
2.529702e+002,9.006373e-001
2.539344e+002,6.231713e-001
2.548987e+002,5.403073e-001
2.558629e+002,1.289502e+000
2.568272e+002,9.606173e-001
2.577914e+002,2.626677e-001
2.587557e+002,6.485474e-001
2.597199e+002,8.837005e-001
2.606842e+002,4.748700e-001
2.616484e+002,5.328128e-001
2.626127e+002,5.578762e-001
2.635769e+002,5.243782e-001
2.645412e+002,2.405312e-001
2.655054e+002,4.027440e-001
2.664697e+002,1.266454e+000
2.674339e+002,4.409648e-001
2.683982e+002,9.070670e-001
2.693624e+002,1.117683e+000
2.703267e+002,4.777244e-001
2.712909e+002,3.052624e-001
2.722552e+002,6.403881e-001
2.732194e+002,7.922314e-001
2.741837e+002,1.011307e+000
2.751479e+002,8.253790e-001
2.761122e+002,5.594921e-001
2.770764e+002,1.150769e+000
2.780406e+002,8.343200e-002
2.790049e+002,7.414029e-001
2.799692e+002,1.343631e+000
2.809334e+002,6.563618e-001
2.818977e+002,1.098326e+000
2.828619e+002,1.104940e+000
2.838262e+002,5.079135e-001
2.847904e+002,4.195346e-001
2.857547e+002,7.754334e-001
2.867189e+002,4.392218e-001
2.876832e+002,6.476768e-001
2.886474e+002,8.951418e-001
2.896117e+002,2.761805e-001
2.905759e+002,3.635468e-001
2.915402e+002,9.028006e-001
2.925044e+002,7.624762e-001
2.934687e+002,7.615867e-001
2.944329e+002,1.463093e+000
2.953972e+002,3.618168e-001
2.963614e+002,1.045372e+000
2.973257e+002,6.771119e-001
2.982899e+002,5.716066e-001
2.992542e+002,1.006064e+000
3.002184e+002,7.420756e-001
3.011826e+002,3.732283e-001
3.021469e+002,8.715444e-001
3.031111e+002,1.206101e+000
3.040754e+002,8.324050e-001
3.050396e+002,7.182730e-001
3.060039e+002,7.329040e-001
3.069681e+002,4.807132e-001
3.079324e+002,8.814585e-001
3.088966e+002,1.316167e+000
3.098609e+002,1.295202e+000
3.108251e+002,5.762227e-002
3.117894e+002,3.593317e-001
3.127536e+002,3.204179e-001
3.137179e+002,7.791141e-001
3.146821e+002,1.552788e+000
3.156464e+002,1.227593e+000
3.166106e+002,3.451541e-001
3.175749e+002,7.270526e-001
3.185391e+002,3.320246e-001
3.195034e+002,5.655550e-001
3.204676e+002,1.253226e+000
3.214319e+002,5.534243e-001
3.223961e+002,6.006583e-001
3.233604e+002,7.378557e-001
3.243246e+002,1.357517e+000
3.252889e+002,7.545598e-001
3.262531e+002,5.560527e-001
3.272174e+002,8.624068e-001
3.281816e+002,5.306926e-001
3.291459e+002,4.562168e-001
3.301101e+002,1.480483e-001
3.310744e+002,4.506758e-001
3.320386e+002,3.518437e-001
3.330029e+002,6.722493e-001
3.339671e+002,1.159703e+000
3.349314e+002,8.451363e-001
3.358956e+002,1.007897e+000
3.368599e+002,1.388129e+000
3.378241e+002,9.936324e-001
3.387884e+002,3.215292e-001
3.397526e+002,1.142416e+000
3.407169e+002,1.143727e+000
3.416811e+002,3.685564e-001
3.426454e+002,7.858774e-001
3.436096e+002,8.949492e-001
3.445739e+002,1.031627e+000
3.455381e+002,1.377930e+000
3.465023e+002,1.108075e+000
3.474666e+002,1.521227e+000
3.484308e+002,1.151415e+000
3.493951e+002,1.707666e+000
3.503593e+002,2.149947e+000
3.513236e+002,1.421993e+000
3.522878e+002,9.669496e-001
3.532521e+002,8.986750e-001
3.542163e+002,8.407279e-001
3.551806e+002,1.402275e+000
3.561448e+002,1.318635e+000
3.571091e+002,7.584161e-001
3.580733e+002,9.446726e-001
3.590376e+002,7.064991e-001
3.600018e+002,6.412540e-001
3.609661e+002,4.544426e-001
3.619303e+002,1.845051e+000
3.628946e+002,1.438668e+000
3.638588e+002,1.200024e+000
3.648231e+002,7.893225e-001
3.657873e+002,7.604596e-001
3.667516e+002,6.025808e-001
3.677158e+002,1.008690e+000
3.686801e+002,5.864409e-001
3.696443e+002,5.237930e-001
3.706086e+002,6.600628e-001
3.715728e+002,1.526276e+000
3.725371e+002,1.341932e+000
3.735013e+002,3.773974e-001
3.744656e+002,5.766532e-001
3.754298e+002,2.560344e-001
3.763941e+002,6.786110e-001
3.773583e+002,1.774751e+000
3.783226e+002,1.595932e+000
3.792868e+002,1.345240e+000
3.802511e+002,1.503669e+000
3.812153e+002,8.571124e-001
3.821796e+002,3.984634e-001
3.831438e+002,7.206318e-001
3.841081e+002,9.246900e-001
3.850723e+002,8.020767e-001
3.860366e+002,1.029725e+000
3.870008e+002,1.644663e+000
3.879651e+002,1.152174e+000
3.889293e+002,9.983500e-001
3.898936e+002,4.997399e-001
3.908578e+002,2.571227e-001
3.918221e+002,7.864605e-001
3.927863e+002,8.518098e-001
3.937505e+002,1.234164e+000
3.947148e+002,3.745218e-001
3.956790e+002,4.176805e-001
3.966433e+002,1.389045e+000
3.976075e+002,1.960386e+000
3.985718e+002,1.212581e+000
3.995360e+002,7.518481e-001
4.005003e+002,5.904953e-001
4.014645e+002,2.440150e-001
4.024288e+002,7.502007e-001
4.033931e+002,4.431987e-001
4.043573e+002,9.219696e-001
4.053216e+002,8.856584e-001
4.062858e+002,1.426852e+000
4.072501e+002,8.715086e-001
4.082143e+002,8.147666e-002
4.091786e+002,6.305451e-001
4.101428e+002,1.034635e+000
4.111071e+002,4.781325e-001
4.120713e+002,5.680454e-001
4.130356e+002,2.772760e-001
4.139998e+002,3.339086e-001
4.149641e+002,9.788768e-001
4.159283e+002,1.518017e+000
4.168925e+002,1.279710e+000
4.178568e+002,1.564545e+000
4.188210e+002,8.823432e+000
4.197853e+002,1.118064e+001
4.207495e+002,2.887806e+000
4.217138e+002,2.946712e-001
4.226780e+002,1.491961e+000
4.236423e+002,1.206430e+000
4.246065e+002,4.933434e-001
4.255708e+002,1.887754e+000
4.265350e+002,1.139998e+000
4.274993e+002,9.786601e-002
4.284635e+002,3.349936e-001
4.294278e+002,2.789913e-001
4.303920e+002,9.301369e-001
4.313563e+002,1.328403e+000
4.323205e+002,1.021632e+000
4.332848e+002,6.061502e-001
4.342490e+002,5.963035e-001
4.352133e+002,1.007080e+000
4.361775e+002,5.796041e-001
4.371418e+002,1.441446e-001
4.381060e+002,8.254956e-001
4.390703e+002,1.107560e+000
4.400345e+002,7.719718e-001
4.409988e+002,1.184138e+000
4.419630e+002,1.159415e+000
4.429273e+002,1.328360e+000
4.438915e+002,1.242467e+000
4.448558e+002,4.693196e-001
4.458200e+002,7.517877e+000
4.467843e+002,3.681607e+001
4.477485e+002,2.939764e+001
4.487128e+002,3.336559e+000
4.496770e+002,6.304838e-001
4.506413e+002,2.926485e-001
4.516055e+002,5.087879e-001
4.525698e+002,6.800529e-001
4.535340e+002,8.947412e-001
4.544983e+002,1.449289e+000
4.554625e+002,1.038357e+000
4.564268e+002,1.557809e+000
4.573910e+002,1.305880e+000
4.583553e+002,4.038979e-001
4.593195e+002,7.551441e-001
4.602838e+002,5.689709e-001
4.612480e+002,2.697977e-001
4.622122e+002,8.257363e-001
4.631765e+002,2.227825e-001
4.641407e+002,7.401852e-001
4.651050e+002,5.261670e-001
4.660692e+002,1.104367e+000
4.670335e+002,1.143935e+000
4.679977e+002,1.146546e+000
4.689620e+002,6.112437e-001
4.699262e+002,3.225138e-001
4.708905e+002,1.422910e+000
4.718547e+002,1.974970e+000
4.728190e+002,2.056470e+000
4.737832e+002,1.593194e+000
4.747475e+002,1.433216e+000
4.757117e+002,6.803436e-001
4.766760e+002,7.629163e-001
4.776402e+002,9.438157e-001
4.786045e+002,7.042581e-001
4.795687e+002,7.440418e-001
4.805330e+002,7.267681e-001
4.814972e+002,2.354560e-001
4.824615e+002,9.366301e-001
4.834257e+002,3.006807e-001
4.843900e+002,5.087187e-001
4.853542e+002,1.307809e+000
4.863185e+002,1.311070e+000
4.872827e+002,1.263583e+000
4.882470e+002,2.248857e+000
4.892112e+002,8.014410e-001
4.901755e+002,9.054836e-001
4.911397e+002,9.999726e-001
4.921040e+002,7.790449e-001
4.930682e+002,1.335991e+000
4.940325e+002,1.927903e+000
4.949967e+002,1.520091e+000
4.959610e+002,1.250251e+000
4.969252e+002,1.222290e+000
4.978895e+002,4.027849e-002
4.988537e+002,9.530991e-001
4.998180e+002,5.976736e-001
5.007822e+002,6.686586e-001
5.017465e+002,4.319464e-001
5.027107e+002,2.886139e-001
5.036750e+002,5.875990e-001
5.046392e+002,4.631699e-001
5.056035e+002,7.959067e-001
5.065677e+002,1.963066e-001
5.075320e+002,9.783008e-001
5.084962e+002,7.510072e-001
5.094604e+002,1.085691e+000
5.104247e+002,9.719495e-001
5.113889e+002,3.177817e-001
5.123532e+002,1.208136e+000
5.133174e+002,8.314870e-001
5.142817e+002,2.812081e-001
5.152460e+002,1.374633e-001
5.162102e+002,5.704575e-001
5.171744e+002,5.533152e-001
5.181387e+002,6.807341e-001
5.191030e+002,5.943471e-001
5.200672e+002,6.257510e-001
5.210314e+002,1.568018e+000
5.219957e+002,1.628571e+000
5.229600e+002,1.130574e+000
5.239242e+002,5.665328e-001
5.248884e+002,4.573300e-001
5.258527e+002,4.826490e-001
5.268170e+002,5.659293e-001
5.277812e+002,5.802759e-001
5.287454e+002,1.179994e+000
5.297097e+002,1.566730e+000
5.306740e+002,5.472871e-001
5.316382e+002,2.125042e-001
5.326024e+002,8.438934e-001
5.335667e+002,1.400638e+000
5.345309e+002,1.531411e+000
5.354952e+002,5.614845e-001
5.364594e+002,2.934139e-001
5.374237e+002,4.015137e-001
5.383879e+002,7.064218e-001
5.393522e+002,1.722725e+000
5.403164e+002,1.082273e+000
5.412807e+002,2.577668e-001
5.422449e+002,1.796495e+000
5.432092e+002,2.256784e+000
5.441734e+002,1.318308e+000
5.451377e+002,5.667289e-001
5.461019e+002,1.164046e+000
5.470662e+002,8.224937e-001
5.480304e+002,1.547880e-001
5.489947e+002,6.046346e-001
5.499589e+002,2.346344e-001
5.509232e+002,7.831426e-001
5.518874e+002,9.035556e-001
5.528517e+002,6.225629e-001
5.538159e+002,4.240714e-001
5.547802e+002,1.482400e-001
5.557444e+002,5.473184e-001
5.567087e+002,1.742339e+000
5.576729e+002,3.096124e+000
5.586371e+002,2.106663e+000
5.596014e+002,1.519449e+000
5.605657e+002,9.720199e-001
5.615299e+002,5.095140e-001
5.624941e+002,8.290110e-001
5.634584e+002,1.667015e-001
5.644227e+002,1.112065e+000
5.653869e+002,4.392571e+000
5.663511e+002,4.120201e+000
5.673154e+002,1.556386e+000
5.682797e+002,1.223656e+000
5.692439e+002,3.294829e-001
5.702081e+002,3.252136e-001
5.711724e+002,4.837098e-001
5.721367e+002,4.884204e-001
5.731009e+002,1.250785e+000
5.740651e+002,1.517293e+000
5.750294e+002,7.206847e-001
5.759937e+002,5.816085e-001
5.769579e+002,1.137374e+000
5.779221e+002,1.237424e+000
5.788864e+002,3.370638e-001
5.798506e+002,1.053929e+000
5.808149e+002,1.999281e+000
5.817791e+002,1.606174e+000
5.827434e+002,2.380903e-001
5.837076e+002,5.966145e-001
5.846719e+002,4.132434e-001
5.856361e+002,4.529094e-001
5.866004e+002,9.509289e-001
5.875646e+002,9.966458e-001
5.885289e+002,1.492568e+000
5.894932e+002,1.577740e+000
5.904574e+002,8.237579e-001
5.914216e+002,8.302145e-001
5.923859e+002,2.875793e-001
5.933502e+002,8.267370e-001
5.943144e+002,6.671629e-001
5.952786e+002,4.441225e-001
5.962429e+002,5.493000e-001
5.972072e+002,3.765388e-001
5.981714e+002,2.014155e-001
5.991356e+002,3.335988e-001
6.000999e+002,5.674161e-001
6.010641e+002,6.850446e-001
6.020284e+002,6.363837e-001
6.029926e+002,5.233077e-001
6.039568e+002,5.070783e-001
6.049211e+002,9.610304e-001
6.058854e+002,9.560323e-001
6.068496e+002,1.188362e+000
6.078138e+002,1.166459e+000
6.087781e+002,1.434280e+000
6.097424e+002,1.452791e+000
6.107066e+002,1.078357e+000
6.116708e+002,1.074288e+000
6.126351e+002,1.732890e+000
6.135994e+002,6.802203e+000
6.145636e+002,9.079647e+000
6.155278e+002,3.067812e+000
6.164921e+002,1.585821e+000
6.174564e+002,1.037140e+000
6.184206e+002,5.514477e-001
6.193849e+002,7.019224e-001
6.203491e+002,4.004779e-001
6.213134e+002,1.075395e+000
6.222776e+002,8.902035e-001
6.232419e+002,3.168206e-001
6.242061e+002,1.517429e+000
6.251703e+002,8.667191e-001
6.261346e+002,8.905654e-001
6.270989e+002,4.291284e-001
6.280631e+002,5.673150e+000
6.290273e+002,7.276212e+000
6.299916e+002,1.390084e+000
6.309559e+002,1.330836e+000
6.319201e+002,1.260916e+000
6.328843e+002,3.540813e-001
6.338486e+002,1.014665e+000
6.348129e+002,2.254610e-001
6.357771e+002,1.052543e+000
6.367413e+002,1.663069e+000
6.377056e+002,1.102143e+000
6.386699e+002,6.564683e-001
6.396341e+002,7.405016e-001
6.405983e+002,1.351716e+000
6.415626e+002,5.845848e-001
6.425269e+002,4.299917e-001
6.434911e+002,8.782067e-001
6.444553e+002,7.041371e-001
6.454196e+002,1.198458e+000
6.463839e+002,9.924093e-001
6.473481e+002,7.704290e-001
6.483123e+002,2.921668e-001
6.492766e+002,9.027506e-001
6.502408e+002,1.335388e+000
6.512051e+002,9.372057e-001
6.521693e+002,5.812609e-001
6.531336e+002,7.802204e-001
6.540978e+002,5.570148e-001
6.550621e+002,2.134423e-001
6.560263e+002,8.602793e-001
6.569906e+002,7.942290e-001
6.579548e+002,7.270239e-001
6.589191e+002,1.449670e+000
6.598833e+002,1.895255e+000
6.608476e+002,1.806632e+000
6.618118e+002,7.919391e-001
6.627761e+002,4.103070e-001
6.637403e+002,1.528957e+000
6.647046e+002,1.419211e+000
6.656688e+002,5.762708e-001
6.666331e+002,9.796993e-001
6.675973e+002,1.353551e+000
6.685616e+002,1.677333e+000
6.695258e+002,1.874968e+000
6.704901e+002,1.312600e+000
6.714543e+002,5.162162e-001
6.724186e+002,1.504994e+000
6.733828e+002,1.822173e+000
6.743470e+002,1.183093e+000
6.753113e+002,5.327724e-001
6.762756e+002,1.054479e+000
6.772398e+002,9.430720e-001
6.782040e+002,1.271739e+000
6.791683e+002,8.168144e-001
6.801326e+002,4.381155e-001
6.810968e+002,9.907019e-001
6.820610e+002,1.538942e+000
6.830253e+002,7.499558e-001
6.839896e+002,4.115162e-001
6.849538e+002,3.494050e-001
6.859180e+002,9.078400e-001
6.868823e+002,7.894223e-001
6.878466e+002,8.327595e-001
6.888108e+002,1.179099e+000
6.897750e+002,1.338961e+000
6.907393e+002,2.247882e-001
6.917036e+002,7.025483e-001
6.926678e+002,8.443450e-001
6.936320e+002,3.082432e-001
6.945963e+002,5.768259e-001
6.955605e+002,5.850213e-001
6.965248e+002,1.068352e+000
6.974890e+002,3.885863e-001
6.984533e+002,7.529176e-001
6.994175e+002,6.955788e-001
7.003818e+002,6.722686e-001
7.013460e+002,1.172884e+000
7.023103e+002,1.008508e+000
7.032745e+002,7.868602e-001
7.042388e+002,1.493652e+000
7.052030e+002,1.344040e+000
7.061673e+002,1.246892e+000
7.071315e+002,1.027175e+000
7.080958e+002,6.523573e-001
7.090600e+002,8.387269e-001
7.100243e+002,5.729876e-001
7.109885e+002,1.437836e+000
7.119528e+002,3.295748e-001
7.129171e+002,3.451760e-001
7.138813e+002,9.692080e+000
7.148455e+002,3.541741e+001
7.158098e+002,2.680752e+001
7.167740e+002,7.583642e+000
7.177383e+002,2.562473e+000
7.187025e+002,3.451278e-001
7.196667e+002,2.142087e-001
7.206310e+002,5.123066e-001
7.215953e+002,7.896199e-001
7.225595e+002,5.962126e-001
7.235237e+002,8.912010e-001
7.244880e+002,1.556497e+000
7.254523e+002,3.307642e+000
7.264165e+002,5.119853e-001
7.273807e+002,6.247743e-001
7.283450e+002,9.606415e-001
7.293093e+002,1.506115e+000
7.302735e+002,1.382950e+000
7.312377e+002,1.149764e+000
7.322020e+002,1.668196e-001
7.331663e+002,1.136060e+000
7.341305e+002,8.764969e-001
7.350947e+002,1.614824e+000
7.360590e+002,1.498115e+000
7.370233e+002,9.370907e-001
7.379875e+002,1.119894e+000
7.389517e+002,8.741706e-001
7.399160e+002,1.157493e+000
7.408802e+002,8.549094e-001
7.418445e+002,4.069352e-001
7.428088e+002,7.394777e-001
7.437730e+002,1.019222e+000
7.447372e+002,1.070705e+000
7.457015e+002,9.553714e-001
7.466658e+002,1.665527e+000
7.476300e+002,1.758391e+000
7.485942e+002,1.436763e+000
7.495585e+002,2.231776e-001
7.505228e+002,1.149248e+000
7.514870e+002,1.120929e+000
7.524512e+002,4.394546e-001
7.534155e+002,1.051646e+000
7.543798e+002,8.905376e-001
7.553440e+002,8.492604e-001
7.563082e+002,4.184848e-001
7.572725e+002,1.490450e+000
7.582368e+002,1.873690e+000
7.592010e+002,1.571800e+000
7.601652e+002,1.117073e+000
7.611295e+002,1.163637e+000
7.620938e+002,1.189260e+000
7.630580e+002,9.720398e-001
7.640222e+002,1.109677e+000
7.649865e+002,5.749596e-001
7.659507e+002,1.675859e+000
7.669150e+002,1.412988e+000
7.678792e+002,1.334563e+000
7.688434e+002,2.063606e+000
7.698077e+002,1.090734e+000
7.707720e+002,7.631369e-001
7.717362e+002,1.530766e+000
7.727005e+002,1.722257e+000
7.736647e+002,2.893665e+000
7.746290e+002,1.976979e+000
7.755932e+002,8.164976e-001
7.765575e+002,9.648067e-001
7.775217e+002,1.093356e+000
7.784860e+002,1.093985e+000
7.794502e+002,1.633838e+000
7.804145e+002,1.354852e+000
7.813787e+002,1.467594e+000
7.823430e+002,5.889026e+000
7.833072e+002,1.477531e+001
7.842715e+002,6.497748e+000
7.852357e+002,8.762221e-001
7.862000e+002,7.785608e-001
7.871642e+002,6.455112e-001
7.881285e+002,2.224936e-001
7.890927e+002,3.515799e-001
7.900569e+002,4.711307e-001
7.910212e+002,5.764962e-001
7.919855e+002,8.107728e-001
7.929497e+002,1.289931e+000
7.939139e+002,9.845986e-001
7.948782e+002,5.785414e-001
7.958425e+002,4.082665e-001
7.968067e+002,6.601580e-001
7.977709e+002,8.500132e-001
7.987352e+002,1.671916e+000
7.996995e+002,1.517280e+000
8.006637e+002,5.756009e-001
8.016279e+002,8.818722e-001
8.025922e+002,1.226989e+000
8.035565e+002,1.310504e+000
8.045207e+002,5.511264e-001
8.054849e+002,9.075742e-001
8.064492e+002,9.371426e-001
8.074135e+002,3.515346e-001
8.083777e+002,8.002005e-001
8.093419e+002,1.177591e+000
8.103062e+002,5.276059e-001
8.112704e+002,7.041152e-001
8.122347e+002,6.549568e-001
8.131989e+002,9.897559e-001
8.141632e+002,1.416776e+000
8.151274e+002,8.516508e-001
8.160917e+002,7.906668e-001
8.170559e+002,1.005537e+000
8.180202e+002,7.985343e-001
8.189844e+002,1.226041e+000
8.199487e+002,1.677306e+000
8.209129e+002,7.154786e-001
8.218772e+002,4.188538e-001
8.228414e+002,5.198070e-001
8.238057e+002,7.332017e-001
8.247699e+002,1.203551e+000
8.257342e+002,7.723371e-001
8.266984e+002,1.108707e+000
8.276627e+002,1.383363e+000
8.286269e+002,7.697734e-001
8.295912e+002,6.292260e-001
8.305554e+002,1.713679e+000
8.315197e+002,1.392333e+000
8.324839e+002,7.857478e-001
8.334482e+002,6.276156e-001
8.344124e+002,1.403307e+000
8.353766e+002,9.017841e-001
8.363409e+002,1.120652e+000
8.373052e+002,1.310197e+000
8.382694e+002,9.153906e-001
8.392336e+002,9.254479e-001
8.401979e+002,1.265814e+000
8.411622e+002,8.039477e-001
8.421264e+002,6.708657e-001
8.430906e+002,6.301683e-001
8.440549e+002,4.142366e-001
8.450192e+002,2.656219e-001
8.459834e+002,7.138788e-001
8.469476e+002,9.252275e-001
8.479119e+002,9.763605e-001
8.488762e+002,4.262299e-001
8.498404e+002,5.572989e-001
8.508046e+002,1.112159e+000
8.517689e+002,9.806729e-001
8.527332e+002,5.362120e-001
8.536974e+002,2.948427e-001
8.546616e+002,7.786574e-001
8.556259e+002,1.553057e+000
8.565901e+002,1.402646e+000
8.575544e+002,1.623409e+000
8.585186e+002,1.304788e+000
8.594829e+002,4.824900e-001
8.604471e+002,6.576077e-001
8.614114e+002,1.074133e+000
8.623756e+002,3.503695e-001
8.633399e+002,1.186156e+000
8.643041e+002,6.650340e-001
8.652684e+002,5.203542e-001
8.662327e+002,9.623176e-001
8.671969e+002,4.957303e-001
8.681611e+002,6.242298e-001
8.691254e+002,2.277029e-001
8.700897e+002,1.020050e+000
8.710539e+002,1.111449e+000
8.720181e+002,1.476494e-001
8.729824e+002,8.366965e-001
8.739467e+002,8.459297e-001
8.749109e+002,5.914292e-001
8.758751e+002,3.578176e-001
8.768394e+002,8.929042e-001
8.778036e+002,1.279665e+000
8.787679e+002,1.694439e+000
8.797321e+002,1.645109e+000
8.806964e+002,2.019042e-001
8.816606e+002,8.617377e-001
8.826249e+002,7.289482e-001
8.835891e+002,1.592984e+000
8.845533e+002,6.428263e-001
8.855176e+002,9.988284e-001
8.864819e+002,4.132003e-001
8.874461e+002,2.527380e-001
8.884103e+002,8.074706e-001
8.893746e+002,1.331547e+000
8.903389e+002,2.720875e-001
8.913031e+002,1.072303e+000
8.922673e+002,6.331462e-001
8.932316e+002,4.323561e-001
8.941959e+002,7.609793e+000
8.951601e+002,1.439574e+001
8.961244e+002,4.932300e+000
8.970886e+002,3.212084e+000
8.980529e+002,5.291986e+000
8.990171e+002,1.792673e+000
8.999814e+002,6.731209e-001
9.009456e+002,4.676074e-001
9.019099e+002,5.819072e-001
9.028741e+002,5.160748e-001
9.038384e+002,8.832545e-001
9.048026e+002,9.750648e-001
9.057668e+002,1.052207e+000
9.067311e+002,5.243706e-001
9.076954e+002,7.000226e-001
9.086596e+002,6.425317e-001
9.096238e+002,1.177657e+000
9.105881e+002,4.859640e+000
9.115524e+002,6.456732e+000
9.125166e+002,2.687117e+000
9.134808e+002,2.179106e-001
9.144451e+002,7.068283e-001
9.154094e+002,4.618020e-001
9.163736e+002,6.675524e-001
9.173378e+002,9.833219e-001
9.183021e+002,5.371559e-001
9.192664e+002,8.281685e-001
9.202306e+002,1.099248e+000
9.211948e+002,1.039418e+000
9.221591e+002,1.078982e+000
9.231234e+002,7.997000e-001
9.240876e+002,5.228281e-001
9.250518e+002,4.382572e-001
9.260161e+002,2.616111e-001
9.269803e+002,8.868307e-001
9.279446e+002,1.597475e+000
9.289088e+002,9.977701e-001
9.298731e+002,9.330161e-001
9.308373e+002,7.558648e-001
9.318016e+002,3.222071e-001
9.327658e+002,1.084905e-001
9.337301e+002,1.335498e+000
9.346943e+002,9.904907e-001
9.356586e+002,6.017973e-001
9.366228e+002,1.136404e+000
9.375871e+002,1.077939e+000
9.385513e+002,1.745381e+000
9.395156e+002,7.513518e-001
9.404798e+002,5.996926e-001
9.414441e+002,6.835349e-001
9.424083e+002,8.434437e-001
9.433726e+002,1.763661e+000
9.443368e+002,1.743058e+000
9.453011e+002,1.302318e+000
9.462653e+002,1.121590e+000
9.472296e+002,5.213587e-001
9.481938e+002,4.011559e-001
9.491581e+002,3.100600e-001
9.501223e+002,1.278688e+000
9.510865e+002,1.250809e+000
9.520508e+002,6.951471e-001
9.530151e+002,7.770007e-001
9.539793e+002,1.093238e+000
9.549435e+002,3.620424e-001
9.559078e+002,5.654742e-001
9.568721e+002,1.353038e+000
9.578363e+002,8.147374e-001
9.588005e+002,1.115273e+000
9.597648e+002,7.950995e-001
9.607291e+002,9.516025e-001
9.616933e+002,5.143865e-001
9.626575e+002,7.283153e-001
9.636218e+002,1.413659e+000
9.645861e+002,1.321275e+000
9.655503e+002,7.234610e-001
9.665145e+002,1.873356e-001
9.674788e+002,8.173892e-001
9.684431e+002,3.463963e-001
9.694073e+002,7.468777e-001
9.703715e+002,1.492893e+000
9.713358e+002,1.312272e+000
9.723000e+002,3.087003e-001
9.732643e+002,7.463748e-001
9.742285e+002,8.628967e-001
9.751928e+002,4.238295e-001
9.761570e+002,5.188712e-001
9.771213e+002,8.953331e-001
9.780855e+002,1.044938e+000
9.790498e+002,3.974810e-001
9.800140e+002,4.783910e-001
9.809783e+002,5.374153e-001
9.819425e+002,9.445155e-001
9.829068e+002,6.981893e-001
9.838710e+002,5.727895e-001
9.848353e+002,2.756066e-001
9.857995e+002,2.509623e-001
9.867638e+002,7.520427e-001
9.877280e+002,1.057580e+000
9.886923e+002,6.446916e-001
9.896566e+002,3.336516e-001
9.906208e+002,1.085742e-001
9.915850e+002,4.098493e-001
9.925493e+002,7.308238e-001
9.935135e+002,9.960755e-001
9.944778e+002,3.206707e-001
9.954420e+002,4.173920e-001
9.964063e+002,6.608608e-001
9.973705e+002,9.432130e-001
9.983348e+002,7.053263e-001
9.992990e+002,1.262373e+000
1.000263e+003,1.641689e+000
1.001228e+003,1.347517e+000
1.002192e+003,9.092041e-001
1.003156e+003,5.645903e-001
1.004120e+003,1.836268e-001
1.005085e+003,8.838868e-001
1.006049e+003,3.151218e-001
1.007013e+003,6.902556e-001
1.007977e+003,7.219733e-001
1.008942e+003,2.969980e-001
1.009906e+003,3.550641e-001
1.010870e+003,4.096217e-001
1.011834e+003,3.878716e-001
1.012799e+003,7.574658e-001
1.013763e+003,3.927272e-001
1.014727e+003,3.454943e-001
1.015691e+003,3.351705e-001
1.016656e+003,1.610961e-001
1.017620e+003,1.297846e+000
1.018584e+003,1.839831e+000
1.019548e+003,9.833919e-001
1.020513e+003,5.791323e-001
1.021477e+003,7.459797e-001
1.022441e+003,9.038305e-001
1.023405e+003,9.158371e-001
1.024370e+003,4.706176e-001
1.025334e+003,6.905087e-001
1.026298e+003,5.451986e-001
1.027262e+003,1.807715e+000
1.028226e+003,1.120928e+000
1.029191e+003,9.509028e-001
1.030155e+003,5.680131e-001
1.031119e+003,7.607236e-001
1.032083e+003,1.056468e+000
1.033048e+003,6.830603e-001
1.034012e+003,7.314002e-001
1.034976e+003,8.785021e-001
1.035940e+003,7.304903e-001
1.036905e+003,4.938727e-001
1.037869e+003,5.089785e-001
1.038833e+003,7.691409e-001
1.039797e+003,5.429878e-001
1.040762e+003,1.176677e+000
1.041726e+003,1.785750e-001
1.042690e+003,1.189549e-001
1.043654e+003,2.578842e-001
1.044619e+003,1.033116e-001
1.045583e+003,6.295335e-001
1.046547e+003,6.581656e-001
1.047511e+003,9.277272e-001
1.048476e+003,2.674727e+000
1.049440e+003,8.335393e+000
1.050404e+003,5.447439e+000
1.051369e+003,7.221528e-001
1.052333e+003,8.726742e-001
1.053297e+003,1.301627e+000
1.054261e+003,1.244420e+000
1.055225e+003,1.530171e+000
1.056190e+003,6.254212e-001
1.057154e+003,1.234654e+000
1.058118e+003,1.854150e+000
1.059083e+003,5.369151e-001
1.060047e+003,6.304587e-001
1.061011e+003,9.903020e-001
1.061975e+003,2.624137e-001
1.062939e+003,2.742764e-001
1.063904e+003,6.077242e-001
1.064868e+003,1.262937e-001
1.065832e+003,3.503910e-001
1.066797e+003,7.813647e-001
1.067761e+003,2.400280e+000
1.068725e+003,6.264176e-001
1.069689e+003,5.419006e-001
1.070653e+003,1.009097e+000
1.071618e+003,6.917072e-001
1.072582e+003,7.133163e-001
1.073546e+003,7.976637e-001
1.074510e+003,1.116952e+000
1.075475e+003,1.030750e+000
1.076439e+003,1.213618e+000
1.077403e+003,8.058757e-001
1.078367e+003,3.730328e-001
1.079332e+003,8.497225e-001
1.080296e+003,2.848571e-001
1.081260e+003,1.753361e+000
1.082224e+003,1.727801e+000
1.083189e+003,1.994120e+000
1.084153e+003,6.507731e-001
1.085117e+003,7.968201e-001
1.086081e+003,1.274083e+000
1.087046e+003,1.609960e+000
1.088010e+003,1.610612e+000
1.088974e+003,1.380710e+000
1.089938e+003,7.390540e-001
1.090903e+003,8.685980e-001
1.091867e+003,3.956635e-001
1.092831e+003,8.432833e-001
1.093795e+003,6.903969e-001
1.094760e+003,5.075254e-001
1.095724e+003,4.110040e-001
1.096688e+003,5.702140e-001
1.097652e+003,6.980407e-001
1.098617e+003,5.084947e-001
1.099581e+003,1.567773e+000
1.100545e+003,1.359739e+000
1.101509e+003,9.092669e-001
1.102474e+003,8.311925e-001
1.103438e+003,1.471861e+000
1.104402e+003,8.624827e-001
1.105366e+003,8.888206e+000
1.106331e+003,1.068315e+001
1.107295e+003,1.833264e+000
1.108259e+003,1.018573e+000
1.109223e+003,3.993250e-001
1.110188e+003,9.963936e-001
1.111152e+003,8.504855e-001
1.112116e+003,8.368893e-001
1.113080e+003,4.519104e-001
1.114045e+003,3.968854e-001
1.115009e+003,1.155326e+000
1.115973e+003,1.207739e+000
1.116937e+003,1.365580e+000
1.117902e+003,1.125473e+000
1.118866e+003,1.249631e-001
1.119830e+003,3.099112e-001
1.120794e+003,5.143099e-001
1.121759e+003,7.073177e-002
1.122723e+003,3.410583e-001
1.123687e+003,3.468596e-001
1.124651e+003,8.339442e-001
1.125616e+003,1.144760e+000
1.126580e+003,8.371905e-001
1.127544e+003,5.098537e-001
1.128508e+003,4.632217e-001
1.129473e+003,9.272380e-001
1.130437e+003,1.011309e+000
1.131401e+003,1.369856e+000
1.132365e+003,6.547256e-001
1.133330e+003,8.651659e-001
1.134294e+003,4.240189e-001
1.135258e+003,4.639108e-001
1.136222e+003,5.971576e-001
1.137187e+003,9.658362e-001
1.138151e+003,8.504715e-001
1.139115e+003,5.493243e-001
1.140079e+003,8.780305e-001
1.141044e+003,7.157884e-001
1.142008e+003,5.461002e-001
1.142972e+003,8.982573e-001
1.143936e+003,1.407437e+000
1.144901e+003,1.496382e+000
1.145865e+003,5.187075e-001
1.146829e+003,7.214636e-001
1.147793e+003,5.040734e-001
1.148758e+003,7.843875e-001
1.149722e+003,1.806171e+000
1.150686e+003,1.577319e+000
1.151650e+003,8.828202e-001
1.152615e+003,1.036107e+000
1.153579e+003,1.854490e-001
1.154543e+003,4.316674e-001
1.155507e+003,3.067721e-001
1.156472e+003,1.032972e+000
1.157436e+003,8.372316e-001
1.158400e+003,5.424054e-001
1.159364e+003,1.297566e+000
1.160329e+003,1.291603e+000
1.161293e+003,1.024615e+000
1.162257e+003,5.416394e-001
1.163221e+003,3.376573e-001
1.164186e+003,4.891638e-001
1.165150e+003,4.087031e-001
1.166114e+003,3.888577e-001
1.167078e+003,1.252116e-001
1.168043e+003,2.947222e-001
1.169007e+003,6.911829e-001
1.169971e+003,1.140269e+000
1.170935e+003,5.264377e-002
1.171900e+003,7.557459e-001
1.172864e+003,5.215024e-001
1.173828e+003,1.631232e+000
1.174792e+003,1.610431e+000
1.175757e+003,1.337721e+000
1.176721e+003,1.207975e+000
1.177685e+003,3.041633e-002
1.178649e+003,1.346416e+000
1.179614e+003,1.191021e+000
1.180578e+003,1.590448e+000
1.181542e+003,1.023432e+000
1.182506e+003,6.638541e-001
1.183471e+003,6.277340e-001
1.184435e+003,1.877487e+000
1.185399e+003,1.398151e+000
1.186363e+003,5.232431e-001
1.187328e+003,4.927572e-001
1.188292e+003,9.449332e-001
1.189256e+003,9.305366e-001
1.190220e+003,1.199319e-001
1.191185e+003,3.429524e-001
1.192149e+003,1.552498e-001
1.193113e+003,5.011881e-001
1.194077e+003,1.003598e+000
1.195042e+003,1.686910e+000
1.196006e+003,2.211477e+000
1.196970e+003,8.895808e-001
1.197934e+003,4.263617e-001
1.198899e+003,1.549618e+000
1.199863e+003,7.016567e-001
1.200827e+003,6.609446e-001
1.201791e+003,2.353428e-001
1.202756e+003,6.241639e-001
1.203720e+003,1.768041e-001
1.204684e+003,1.162989e-001
1.205648e+003,2.244264e-001
1.206613e+003,1.142498e+000
1.207577e+003,1.506798e+000
1.208541e+003,5.583885e-001
1.209505e+003,4.903986e-001
1.210470e+003,1.542367e+000
1.211434e+003,1.589921e+000
1.212398e+003,1.302467e+000
1.213362e+003,3.155655e-001
1.214327e+003,7.905455e-001
1.215291e+003,8.466741e-001
1.216255e+003,8.563718e-001
1.217219e+003,8.419013e-001
1.218184e+003,8.658645e-001
1.219148e+003,6.679530e-001
1.220112e+003,9.291549e-001
1.221076e+003,3.442847e-001
1.222041e+003,5.164397e-001
1.223005e+003,9.812501e-001
1.223969e+003,3.453082e-001
1.224933e+003,1.969305e-001
1.225898e+003,8.129375e-001
1.226862e+003,6.783431e-001
1.227826e+003,3.029210e-001
1.228790e+003,3.149300e-001
1.229755e+003,1.113945e+000
1.230719e+003,9.486465e-001
1.231683e+003,7.952176e-001
1.232647e+003,1.195630e+000
1.233612e+003,8.286536e-001
1.234576e+003,2.045403e-001
1.235540e+003,3.744139e-001
1.236504e+003,5.092645e-001
1.237469e+003,5.763125e-001
1.238433e+003,1.034161e+000
1.239397e+003,1.191833e+000
1.240361e+003,1.711205e-001
1.241326e+003,7.851804e-001
1.242290e+003,7.757264e-001
1.243254e+003,2.418409e-001
1.244218e+003,5.348654e-001
1.245182e+003,8.301525e-001
1.246147e+003,8.448647e-001
1.247111e+003,8.395130e-001
1.248075e+003,1.221425e-001
1.249040e+003,8.343431e-001
1.250004e+003,3.998598e-001
1.250968e+003,3.825051e-001
1.251932e+003,1.403051e+000
1.252896e+003,6.485966e-001
1.253861e+003,1.313835e-001
1.254825e+003,1.126858e+000
1.255789e+003,6.915105e-001
1.256754e+003,7.999060e-001
1.257718e+003,9.118941e-001
1.258682e+003,1.213829e+000
1.259646e+003,7.260070e-001
1.260610e+003,9.856342e-001
1.261575e+003,6.664181e-001
1.262539e+003,5.885131e-001
1.263503e+003,7.643088e-001
1.264468e+003,1.408370e+000
1.265432e+003,1.016627e+000
1.266396e+003,1.596683e+000
1.267360e+003,1.414820e+000
1.268325e+003,8.035507e-001
1.269289e+003,6.320528e-001
1.270253e+003,9.295734e-001
1.271217e+003,5.719886e-001
1.272182e+003,1.062353e+000
1.273146e+003,7.236387e-001
1.274110e+003,1.269702e+000
1.275074e+003,7.327572e-001
1.276039e+003,1.140578e+000
1.277003e+003,1.022780e+000
1.277967e+003,8.726753e-001
1.278931e+003,8.240099e-001
1.279896e+003,7.689844e-001
1.280860e+003,1.623571e-001
1.281824e+003,1.635832e-001
1.282788e+003,9.321446e-001
1.283753e+003,9.623366e-001
1.284717e+003,8.193027e-001
1.285681e+003,1.635725e+000
1.286645e+003,1.468895e+000
1.287609e+003,5.866609e-001
1.288574e+003,8.488231e-001
1.289538e+003,4.802471e-001
1.290502e+003,7.840583e-001
1.291467e+003,1.975749e-001
1.292431e+003,4.640823e-001
1.293395e+003,1.057943e+000
1.294359e+003,8.173429e-001
1.295323e+003,1.391731e+000
1.296288e+003,2.483573e+000
1.297252e+003,1.795899e+000
1.298216e+003,9.618741e-001
1.299181e+003,6.364110e-001
1.300145e+003,4.250267e-001
1.301109e+003,6.640213e-001
1.302073e+003,1.715897e+000
1.303037e+003,1.278443e+000
1.304002e+003,9.578785e-001
1.304966e+003,9.072266e-001
1.305930e+003,8.409134e-001
1.306895e+003,1.096543e+000
1.307859e+003,8.714739e-001
1.308823e+003,4.049675e-001
1.309787e+003,8.384230e-001
1.310751e+003,1.186156e+000
1.311716e+003,8.328828e-001
1.312680e+003,1.034852e+000
1.313644e+003,1.251741e+000
1.314609e+003,1.209837e+000
1.315573e+003,1.914436e+000
1.316537e+003,1.919551e+000
1.317501e+003,1.057966e+000
1.318465e+003,5.065541e-001
1.319430e+003,9.888350e-001
1.320394e+003,1.632665e+000
1.321358e+003,1.134692e+000
1.322323e+003,8.738880e-001
1.323287e+003,8.054543e-001
1.324251e+003,4.199844e-001
1.325215e+003,5.276774e-001
1.326179e+003,1.163207e+000
1.327144e+003,5.423464e-001
1.328108e+003,4.414339e-001
1.329072e+003,1.084573e-001
1.330036e+003,1.584907e+000
1.331001e+003,2.262853e+000
1.331965e+003,1.700711e+000
1.332929e+003,1.428421e+000
1.333893e+003,1.387027e+000
1.334858e+003,1.165564e+000
1.335822e+003,7.764743e-001
1.336786e+003,9.753837e-001
1.337750e+003,2.448246e-001
1.338715e+003,9.017897e-001
1.339679e+003,7.990740e-001
1.340643e+003,7.694490e-001
1.341607e+003,3.534938e-001
1.342572e+003,3.212163e-001
1.343536e+003,4.467261e-001
1.344500e+003,7.964138e-001
1.345464e+003,1.079002e+000
1.346429e+003,1.412336e+000
1.347393e+003,1.612987e+000
1.348357e+003,8.773407e-001
1.349321e+003,9.979813e-001
1.350286e+003,6.300887e-001
1.351250e+003,7.291274e-001
1.352214e+003,4.885197e-001
1.353178e+003,1.738519e-001
1.354143e+003,3.686088e-001
1.355107e+003,7.647601e-001
1.356071e+003,5.685843e-001
1.357035e+003,1.289026e+000
1.358000e+003,1.137826e+000
1.358964e+003,5.266948e-001
1.359928e+003,1.382444e+000
1.360892e+003,1.716072e+000
1.361857e+003,1.188302e+000
1.362821e+003,1.023766e-001
1.363785e+003,8.289776e-001
1.364749e+003,1.279551e+000
1.365714e+003,1.561627e+000
1.366678e+003,1.681578e+000
1.367642e+003,1.643213e+000
1.368606e+003,7.385442e-001
1.369571e+003,1.125458e-001
1.370535e+003,2.687770e-001
1.371499e+003,1.060355e+000
1.372463e+003,1.047026e+000
1.373428e+003,1.731972e-001
1.374392e+003,1.030620e+000
1.375356e+003,1.070721e+000
1.376320e+003,1.401213e+000
1.377285e+003,2.052103e+000
1.378249e+003,1.188832e+000
1.379213e+003,2.189808e-001
1.380177e+003,7.413536e-001
1.381142e+003,1.629144e+000
1.382106e+003,9.564200e-001
1.383070e+003,1.318677e+000
1.384034e+003,7.368546e-001
