-6.273351e-001,0.000000e+000
3.369140e-001,5.120019e+001
1.301163e+000,7.299030e+000
2.265412e+000,1.823912e+000
3.229661e+000,1.615952e+000
4.193911e+000,5.832345e-001
5.158160e+000,1.147731e+000
6.122409e+000,5.023699e-001
7.086658e+000,1.460491e+000
8.050907e+000,1.483318e+000
9.015156e+000,4.053368e-001
9.979405e+000,1.186680e+000
1.094365e+001,7.200065e-001
1.190790e+001,6.798549e-001
1.287215e+001,1.309001e+000
1.383640e+001,1.409739e+000
1.480065e+001,7.640420e-001
1.576490e+001,1.311560e+000
1.672915e+001,1.295294e+000
1.769340e+001,6.719813e-001
1.865765e+001,9.413653e-001
1.962190e+001,8.754765e-001
2.058615e+001,3.061445e-001
2.155039e+001,1.095790e+000
2.251464e+001,7.773057e-001
2.347889e+001,6.275792e-001
2.444314e+001,1.223831e+000
2.540739e+001,8.804277e-001
2.637164e+001,5.212116e-001
2.733589e+001,1.265998e+000
2.830014e+001,1.338890e+000
2.926439e+001,1.884042e+000
3.022864e+001,1.254060e+000
3.119289e+001,1.249572e+000
3.215714e+001,1.436255e+000
3.312138e+001,8.593492e-001
3.408563e+001,1.272657e+000
3.504988e+001,5.477527e-001
3.601413e+001,2.516862e-001
3.697838e+001,4.618260e-001
3.794263e+001,8.632500e-001
3.890688e+001,8.881584e-001
3.987113e+001,1.549054e-001
4.083538e+001,9.620693e-002
4.179963e+001,5.588272e-001
4.276387e+001,6.041302e-001
4.372813e+001,3.426366e-001
4.469238e+001,3.304586e-001
4.565662e+001,6.116861e-001
4.662087e+001,1.216173e+000
4.758512e+001,1.388265e+000
4.854937e+001,1.717529e+000
4.951362e+001,9.702562e-001
5.047787e+001,2.402795e-001
5.144212e+001,5.070791e-001
5.240637e+001,4.265397e-001
5.337062e+001,5.968078e-001
5.433487e+001,9.138308e-001
5.529911e+001,2.991499e-001
5.626336e+001,6.758203e-001
5.722761e+001,6.359886e-001
5.819186e+001,1.888942e+000
5.915611e+001,2.675182e+000
6.012036e+001,1.695874e+000
6.108461e+001,1.330735e+000
6.204886e+001,1.459676e+000
6.301311e+001,2.059098e+000
6.397736e+001,2.193698e+000
6.494160e+001,2.085892e+000
6.590585e+001,2.277373e+000
6.687010e+001,2.536725e+000
6.783435e+001,2.568879e+000
6.879860e+001,3.011578e+000
6.976285e+001,5.016787e+000
7.072710e+001,5.893283e+000
7.169135e+001,6.316159e+000
7.265560e+001,7.385225e+000
7.361985e+001,7.945443e+000
7.458410e+001,9.158578e+000
7.554835e+001,1.196632e+001
7.651260e+001,1.567824e+001
7.747684e+001,1.835513e+001
7.844109e+001,2.047731e+001
7.940534e+001,2.299683e+001
8.036959e+001,2.585940e+001
8.133384e+001,2.931648e+001
8.229809e+001,3.160576e+001
8.326234e+001,3.273942e+001
8.422659e+001,3.446149e+001
8.519083e+001,3.688398e+001
8.615509e+001,3.798484e+001
8.711934e+001,3.802845e+001
8.808359e+001,3.903865e+001
8.904784e+001,3.909437e+001
9.001208e+001,3.830883e+001
9.097633e+001,3.888820e+001
9.194058e+001,3.941796e+001
9.290483e+001,4.058013e+001
9.386908e+001,4.151557e+001
9.483333e+001,4.037511e+001
9.579758e+001,3.892319e+001
9.676183e+001,3.934121e+001
9.772607e+001,4.050021e+001
9.869032e+001,4.052877e+001
9.965457e+001,3.944959e+001
1.006188e+002,3.902954e+001
1.015831e+002,3.973257e+001
1.025473e+002,3.977191e+001
1.035116e+002,4.072495e+001
1.044758e+002,4.204085e+001
1.054401e+002,4.239553e+001
1.064043e+002,4.160891e+001
1.073686e+002,4.135712e+001
1.083328e+002,4.064048e+001
1.092971e+002,4.129498e+001
1.102613e+002,4.154178e+001
1.112256e+002,4.092886e+001
1.121898e+002,4.016712e+001
1.131541e+002,3.904588e+001
1.141183e+002,3.918352e+001
1.150826e+002,4.118854e+001
1.160468e+002,4.160634e+001
1.170111e+002,4.022512e+001
1.179753e+002,4.028381e+001
1.189396e+002,4.052319e+001
1.199038e+002,3.936697e+001
1.208681e+002,3.916304e+001
1.218323e+002,3.968350e+001
1.227966e+002,4.047349e+001
1.237608e+002,4.124135e+001
1.247251e+002,4.148402e+001
1.256893e+002,4.061216e+001
1.266535e+002,4.054536e+001
1.276178e+002,4.061530e+001
1.285820e+002,4.084567e+001
1.295463e+002,4.118716e+001
1.305105e+002,4.164531e+001
1.314748e+002,4.221136e+001
1.324390e+002,4.690769e+001
1.334033e+002,4.656480e+001
1.343675e+002,4.346030e+001
1.353318e+002,4.348288e+001
1.362960e+002,4.347420e+001
1.372603e+002,4.393837e+001
1.382245e+002,4.470015e+001
1.391888e+002,4.474240e+001
1.401530e+002,4.469232e+001
1.411173e+002,4.568425e+001
1.420815e+002,4.664088e+001
1.430458e+002,4.722415e+001
1.440100e+002,4.763655e+001
1.449743e+002,4.724338e+001
1.459385e+002,4.795012e+001
1.469028e+002,4.783231e+001
1.478670e+002,4.706209e+001
1.488313e+002,4.700585e+001
1.497955e+002,4.784870e+001
1.507598e+002,4.936463e+001
1.517240e+002,5.027975e+001
1.526883e+002,4.979100e+001
1.536525e+002,4.985939e+001
1.546168e+002,5.027801e+001
1.555810e+002,5.058296e+001
1.565453e+002,4.991626e+001
1.575095e+002,5.080539e+001
1.584738e+002,5.046826e+001
1.594380e+002,7.631147e+001
1.604023e+002,1.916785e+002
1.613665e+002,2.673970e+002
1.623308e+002,1.537415e+002
1.632950e+002,6.328603e+001
1.642593e+002,5.799012e+001
1.652235e+002,5.986425e+001
1.661878e+002,6.088835e+001
1.671520e+002,5.907735e+001
1.681163e+002,5.884354e+001
1.690805e+002,5.846282e+001
1.700448e+002,5.812888e+001
1.710090e+002,5.691313e+001
1.719733e+002,6.198815e+001
1.729375e+002,6.154987e+001
1.739018e+002,5.450274e+001
1.748660e+002,5.202701e+001
1.758303e+002,5.174274e+001
1.767945e+002,5.272009e+001
1.777588e+002,5.359584e+001
1.787230e+002,5.333711e+001
1.796873e+002,5.363763e+001
1.806515e+002,5.341087e+001
1.816158e+002,5.191554e+001
1.825800e+002,5.103951e+001
1.835443e+002,5.179191e+001
1.845085e+002,5.118892e+001
1.854727e+002,5.037026e+001
1.864370e+002,4.773170e+001
1.874012e+002,4.651497e+001
1.883655e+002,4.671584e+001
1.893297e+002,4.592712e+001
1.902940e+002,4.369601e+001
1.912582e+002,4.204164e+001
1.922225e+002,4.048645e+001
1.931867e+002,4.022749e+001
1.941510e+002,4.036182e+001
1.951152e+002,4.007743e+001
1.960795e+002,3.962841e+001
1.970437e+002,3.917233e+001
1.980080e+002,3.964219e+001
1.989722e+002,3.892760e+001
1.999365e+002,3.835995e+001
2.009007e+002,3.890559e+001
2.018650e+002,3.844082e+001
2.028292e+002,3.765608e+001
2.037935e+002,3.790940e+001
2.047577e+002,3.835505e+001
2.057220e+002,3.792756e+001
2.066862e+002,3.750368e+001
2.076505e+002,3.707534e+001
2.086147e+002,3.724125e+001
2.095790e+002,3.732316e+001
2.105432e+002,3.759444e+001
2.115075e+002,3.710832e+001
2.124717e+002,3.706538e+001
2.134360e+002,3.690792e+001
2.144002e+002,3.739828e+001
2.153645e+002,3.785101e+001
2.163287e+002,3.708715e+001
2.172930e+002,3.653277e+001
2.182572e+002,3.700650e+001
2.192215e+002,3.662349e+001
2.201857e+002,3.595413e+001
2.211500e+002,3.627073e+001
2.221142e+002,3.690248e+001
2.230785e+002,3.551352e+001
2.240427e+002,3.493001e+001
2.250070e+002,3.512711e+001
2.259712e+002,3.554440e+001
2.269355e+002,3.527758e+001
2.278997e+002,3.501445e+001
2.288640e+002,3.549263e+001
2.298282e+002,3.594456e+001
2.307924e+002,3.583668e+001
2.317567e+002,3.615657e+001
2.327210e+002,3.649725e+001
2.336852e+002,3.633808e+001
2.346495e+002,3.576826e+001
2.356137e+002,3.483354e+001
2.365780e+002,3.477739e+001
2.375422e+002,3.481454e+001
2.385065e+002,3.428377e+001
2.394707e+002,3.449937e+001
2.404350e+002,3.415322e+001
2.413992e+002,3.370691e+001
2.423634e+002,3.456404e+001
2.433277e+002,3.486981e+001
2.442919e+002,3.426254e+001
2.452562e+002,3.440733e+001
2.462204e+002,3.572924e+001
2.471847e+002,3.542983e+001
2.481489e+002,3.393199e+001
2.491132e+002,3.374381e+001
2.500774e+002,3.372181e+001
2.510417e+002,3.432136e+001
2.520059e+002,3.461336e+001
2.529702e+002,3.455627e+001
2.539344e+002,3.399033e+001
2.548987e+002,3.402456e+001
2.558629e+002,3.460755e+001
2.568272e+002,3.533532e+001
2.577914e+002,3.456630e+001
2.587557e+002,3.465450e+001
2.597199e+002,3.480906e+001
2.606842e+002,3.363413e+001
2.616484e+002,3.271029e+001
2.626127e+002,3.321272e+001
2.635769e+002,3.461318e+001
2.645412e+002,3.550372e+001
2.655054e+002,3.441930e+001
2.664697e+002,3.377768e+001
2.674339e+002,3.329685e+001
2.683982e+002,3.313919e+001
2.693624e+002,3.366675e+001
2.703267e+002,3.428085e+001
2.712909e+002,3.456921e+001
2.722552e+002,3.459409e+001
2.732194e+002,3.523927e+001
2.741837e+002,3.561014e+001
2.751479e+002,3.506277e+001
2.761122e+002,3.459819e+001
2.770764e+002,3.373235e+001
2.780406e+002,3.398172e+001
2.790049e+002,3.458394e+001
2.799692e+002,3.485468e+001
2.809334e+002,3.490545e+001
2.818977e+002,3.498600e+001
2.828619e+002,3.565145e+001
2.838262e+002,3.578981e+001
2.847904e+002,3.456782e+001
2.857547e+002,3.462535e+001
2.867189e+002,3.536787e+001
2.876832e+002,3.578384e+001
2.886474e+002,3.580555e+001
2.896117e+002,3.574714e+001
2.905759e+002,3.487896e+001
2.915402e+002,3.439658e+001
2.925044e+002,3.502629e+001
2.934687e+002,3.537030e+001
2.944329e+002,3.575938e+001
2.953972e+002,3.631276e+001
2.963614e+002,3.678540e+001
2.973257e+002,3.508001e+001
2.982899e+002,3.315525e+001
2.992542e+002,3.353807e+001
3.002184e+002,3.402531e+001
3.011826e+002,3.492088e+001
3.021469e+002,3.537164e+001
3.031111e+002,3.578574e+001
3.040754e+002,3.592590e+001
3.050396e+002,3.534370e+001
3.060039e+002,3.555022e+001
3.069681e+002,3.633851e+001
3.079324e+002,3.717627e+001
3.088966e+002,3.686021e+001
3.098609e+002,3.609619e+001
3.108251e+002,3.667735e+001
3.117894e+002,3.695192e+001
3.127536e+002,3.780202e+001
3.137179e+002,3.864743e+001
3.146821e+002,3.902636e+001
3.156464e+002,4.027414e+001
3.166106e+002,4.192499e+001
3.175749e+002,4.326396e+001
3.185391e+002,4.441500e+001
3.195034e+002,4.576859e+001
3.204676e+002,4.811306e+001
3.214319e+002,5.162506e+001
3.223961e+002,5.498796e+001
3.233604e+002,5.782385e+001
3.243246e+002,6.136787e+001
3.252889e+002,6.306867e+001
3.262531e+002,6.175579e+001
3.272174e+002,6.075182e+001
3.281816e+002,5.809586e+001
3.291459e+002,5.295276e+001
3.301101e+002,4.867815e+001
3.310744e+002,4.696769e+001
3.320386e+002,4.527134e+001
3.330029e+002,4.358235e+001
3.339671e+002,4.219988e+001
3.349314e+002,4.071473e+001
3.358956e+002,3.985833e+001
3.368599e+002,3.974325e+001
3.378241e+002,3.919527e+001
3.387884e+002,3.868853e+001
3.397526e+002,3.752711e+001
3.407169e+002,3.655405e+001
3.416811e+002,3.675514e+001
3.426454e+002,3.691654e+001
3.436096e+002,3.666359e+001
3.445739e+002,3.616107e+001
3.455381e+002,3.570260e+001
3.465023e+002,3.552196e+001
3.474666e+002,3.459549e+001
3.484308e+002,3.390458e+001
3.493951e+002,3.407827e+001
3.503593e+002,3.463585e+001
3.513236e+002,3.420444e+001
3.522878e+002,3.431685e+001
3.532521e+002,3.429932e+001
3.542163e+002,3.412270e+001
3.551806e+002,3.478048e+001
3.561448e+002,3.489713e+001
3.571091e+002,3.491026e+001
3.580733e+002,3.450885e+001
3.590376e+002,3.423008e+001
3.600018e+002,3.404428e+001
3.609661e+002,3.364088e+001
3.619303e+002,3.294273e+001
3.628946e+002,3.347912e+001
3.638588e+002,3.448823e+001
3.648231e+002,3.410681e+001
3.657873e+002,3.365178e+001
3.667516e+002,3.276584e+001
3.677158e+002,3.224277e+001
3.686801e+002,3.167538e+001
3.696443e+002,3.230943e+001
3.706086e+002,3.350396e+001
3.715728e+002,3.358221e+001
3.725371e+002,3.362181e+001
3.735013e+002,3.333761e+001
3.744656e+002,3.265149e+001
3.754298e+002,3.237682e+001
3.763941e+002,3.189114e+001
3.773583e+002,3.205190e+001
3.783226e+002,3.235234e+001
3.792868e+002,3.304353e+001
3.802511e+002,3.361673e+001
3.812153e+002,3.307843e+001
3.821796e+002,3.187569e+001
3.831438e+002,3.156403e+001
3.841081e+002,3.225803e+001
3.850723e+002,3.294423e+001
3.860366e+002,3.257460e+001
3.870008e+002,3.265264e+001
3.879651e+002,3.251385e+001
3.889293e+002,3.190011e+001
3.898936e+002,3.257081e+001
3.908578e+002,3.338525e+001
3.918221e+002,3.370206e+001
3.927863e+002,3.349909e+001
3.937505e+002,3.267599e+001
3.947148e+002,3.182003e+001
3.956790e+002,3.116117e+001
3.966433e+002,3.216704e+001
3.976075e+002,3.291849e+001
3.985718e+002,3.214179e+001
3.995360e+002,3.196870e+001
4.005003e+002,3.199405e+001
4.014645e+002,3.164519e+001
4.024288e+002,3.171788e+001
4.033931e+002,3.229973e+001
4.043573e+002,3.233860e+001
4.053216e+002,3.268840e+001
4.062858e+002,3.353191e+001
4.072501e+002,3.319340e+001
4.082143e+002,3.254938e+001
4.091786e+002,3.241153e+001
4.101428e+002,3.102054e+001
4.111071e+002,3.004360e+001
4.120713e+002,3.051909e+001
4.130356e+002,3.186281e+001
4.139998e+002,3.285892e+001
4.149641e+002,3.204225e+001
4.159283e+002,3.172809e+001
4.168925e+002,3.219662e+001
4.178568e+002,3.234391e+001
4.188210e+002,3.827142e+001
4.197853e+002,4.022927e+001
4.207495e+002,3.268385e+001
4.217138e+002,3.193475e+001
4.226780e+002,3.270345e+001
4.236423e+002,3.209894e+001
4.246065e+002,3.153807e+001
4.255708e+002,3.173189e+001
4.265350e+002,3.047059e+001
4.274993e+002,3.125624e+001
4.284635e+002,3.139704e+001
4.294278e+002,3.132489e+001
4.303920e+002,3.148642e+001
4.313563e+002,3.177383e+001
4.323205e+002,3.112231e+001
4.332848e+002,3.124805e+001
4.342490e+002,3.101368e+001
4.352133e+002,3.121564e+001
4.361775e+002,3.064118e+001
4.371418e+002,3.029407e+001
4.381060e+002,3.030196e+001
4.390703e+002,3.090699e+001
4.400345e+002,3.101583e+001
4.409988e+002,3.133418e+001
4.419630e+002,3.074925e+001
4.429273e+002,3.132475e+001
4.438915e+002,3.197984e+001
4.448558e+002,3.222149e+001
4.458200e+002,3.658144e+001
4.467843e+002,6.300185e+001
4.477485e+002,5.775103e+001
4.487128e+002,3.428976e+001
4.496770e+002,3.139601e+001
4.506413e+002,3.108935e+001
4.516055e+002,3.117852e+001
4.525698e+002,3.063547e+001
4.535340e+002,3.047009e+001
4.544983e+002,3.020070e+001
4.554625e+002,3.129847e+001
4.564268e+002,3.168864e+001
4.573910e+002,3.134653e+001
4.583553e+002,3.028396e+001
4.593195e+002,3.042532e+001
4.602838e+002,3.146723e+001
4.612480e+002,3.162305e+001
4.622122e+002,3.106964e+001
4.631765e+002,3.231794e+001
4.641407e+002,3.285933e+001
4.651050e+002,3.145157e+001
4.660692e+002,3.060733e+001
4.670335e+002,3.064833e+001
4.679977e+002,3.053449e+001
4.689620e+002,3.096358e+001
4.699262e+002,3.159489e+001
4.708905e+002,3.209346e+001
4.718547e+002,3.212870e+001
4.728190e+002,3.231539e+001
4.737832e+002,3.201454e+001
4.747475e+002,3.179356e+001
4.757117e+002,3.052721e+001
4.766760e+002,2.982691e+001
4.776402e+002,3.005926e+001
4.786045e+002,3.034825e+001
4.795687e+002,3.060509e+001
4.805330e+002,3.057042e+001
4.814972e+002,2.990518e+001
4.824615e+002,3.109331e+001
4.834257e+002,3.198372e+001
4.843900e+002,3.126140e+001
4.853542e+002,2.987584e+001
4.863185e+002,2.996756e+001
4.872827e+002,3.058121e+001
4.882470e+002,3.063384e+001
4.892112e+002,3.109608e+001
4.901755e+002,3.160264e+001
4.911397e+002,3.059419e+001
4.921040e+002,2.985944e+001
4.930682e+002,3.072562e+001
4.940325e+002,3.129517e+001
4.949967e+002,3.050274e+001
4.959610e+002,2.910234e+001
4.969252e+002,2.792480e+001
4.978895e+002,2.894629e+001
4.988537e+002,3.036646e+001
4.998180e+002,3.100107e+001
5.007822e+002,3.101914e+001
5.017465e+002,3.069654e+001
5.027107e+002,3.035800e+001
5.036750e+002,3.097371e+001
5.046392e+002,3.055329e+001
5.056035e+002,2.957859e+001
5.065677e+002,3.043059e+001
5.075320e+002,3.084880e+001
5.084962e+002,2.989879e+001
5.094604e+002,2.993490e+001
5.104247e+002,3.005551e+001
5.113889e+002,3.016218e+001
5.123532e+002,2.992480e+001
5.133174e+002,2.996566e+001
5.142817e+002,2.982816e+001
5.152460e+002,2.987473e+001
5.162102e+002,2.993216e+001
5.171744e+002,2.919844e+001
5.181387e+002,2.922189e+001
5.191030e+002,3.016248e+001
5.200672e+002,3.059671e+001
5.210314e+002,3.079426e+001
5.219957e+002,3.070563e+001
5.229600e+002,3.099074e+001
5.239242e+002,3.072655e+001
5.248884e+002,2.993223e+001
5.258527e+002,2.987607e+001
5.268170e+002,3.056089e+001
5.277812e+002,3.062443e+001
5.287454e+002,3.089230e+001
5.297097e+002,3.028246e+001
5.306740e+002,2.989730e+001
5.316382e+002,2.955078e+001
5.326024e+002,2.834862e+001
5.335667e+002,2.832203e+001
5.345309e+002,2.884542e+001
5.354952e+002,2.941098e+001
5.364594e+002,2.998293e+001
5.374237e+002,2.936926e+001
5.383879e+002,2.906215e+001
5.393522e+002,2.882329e+001
5.403164e+002,2.967133e+001
5.412807e+002,3.050032e+001
5.422449e+002,3.037353e+001
5.432092e+002,2.994388e+001
5.441734e+002,3.011860e+001
5.451377e+002,2.962372e+001
5.461019e+002,2.943400e+001
5.470662e+002,2.937514e+001
5.480304e+002,2.957436e+001
5.489947e+002,3.025813e+001
5.499589e+002,3.052905e+001
5.509232e+002,3.077840e+001
5.518874e+002,3.045647e+001
5.528517e+002,2.996888e+001
5.538159e+002,2.919190e+001
5.547802e+002,2.928521e+001
5.557444e+002,2.933400e+001
5.567087e+002,2.841831e+001
5.576729e+002,2.790494e+001
5.586371e+002,2.922900e+001
5.596014e+002,2.913396e+001
5.605657e+002,2.883215e+001
5.615299e+002,2.965913e+001
5.624941e+002,2.870223e+001
5.634584e+002,2.807200e+001
5.644227e+002,2.902244e+001
5.653869e+002,2.711076e+001
5.663511e+002,2.634010e+001
5.673154e+002,2.742096e+001
5.682797e+002,2.759182e+001
5.692439e+002,2.870636e+001
5.702081e+002,2.959577e+001
5.711724e+002,3.012305e+001
5.721367e+002,3.027173e+001
5.731009e+002,3.014355e+001
5.740651e+002,2.931335e+001
5.750294e+002,2.884763e+001
5.759937e+002,2.959463e+001
5.769579e+002,3.082235e+001
5.779221e+002,3.076245e+001
5.788864e+002,2.959206e+001
5.798506e+002,2.886967e+001
5.808149e+002,2.923723e+001
5.817791e+002,3.014837e+001
5.827434e+002,2.997331e+001
5.837076e+002,2.948891e+001
5.846719e+002,3.024825e+001
5.856361e+002,3.053465e+001
5.866004e+002,2.964337e+001
5.875646e+002,2.914092e+001
5.885289e+002,2.863446e+001
5.894932e+002,2.766913e+001
5.904574e+002,2.794037e+001
5.914216e+002,2.854208e+001
5.923859e+002,2.908453e+001
5.933502e+002,2.958080e+001
5.943144e+002,2.928870e+001
5.952786e+002,2.914961e+001
5.962429e+002,2.954406e+001
5.972072e+002,2.905049e+001
5.981714e+002,2.865330e+001
5.991356e+002,2.870114e+001
6.000999e+002,2.954208e+001
6.010641e+002,2.974168e+001
6.020284e+002,2.934467e+001
6.029926e+002,2.922017e+001
6.039568e+002,2.895594e+001
6.049211e+002,2.910324e+001
6.058854e+002,2.888770e+001
6.068496e+002,2.883328e+001
6.078138e+002,2.917666e+001
6.087781e+002,2.956279e+001
6.097424e+002,2.971918e+001
6.107066e+002,2.911209e+001
6.116708e+002,2.864555e+001
6.126351e+002,2.999109e+001
6.135994e+002,3.443150e+001
6.145636e+002,3.571352e+001
6.155278e+002,3.119904e+001
6.164921e+002,2.941258e+001
6.174564e+002,2.840127e+001
6.184206e+002,2.806254e+001
6.193849e+002,2.766564e+001
6.203491e+002,2.804416e+001
6.213134e+002,2.994993e+001
6.222776e+002,2.987966e+001
6.232419e+002,2.836518e+001
6.242061e+002,2.799961e+001
6.251703e+002,2.831239e+001
6.261346e+002,2.830377e+001
6.270989e+002,2.814989e+001
6.280631e+002,3.262714e+001
6.290273e+002,3.494259e+001
6.299916e+002,2.994578e+001
6.309559e+002,2.892799e+001
6.319201e+002,2.985474e+001
6.328843e+002,2.967293e+001
6.338486e+002,2.911998e+001
6.348129e+002,2.941298e+001
6.357771e+002,2.893279e+001
6.367413e+002,2.849188e+001
6.377056e+002,2.879198e+001
6.386699e+002,2.804077e+001
6.396341e+002,2.751945e+001
6.405983e+002,2.837434e+001
6.415626e+002,2.866603e+001
6.425269e+002,2.881090e+001
6.434911e+002,2.876572e+001
6.444553e+002,2.830661e+001
6.454196e+002,2.802957e+001
6.463839e+002,2.825007e+001
6.473481e+002,2.818619e+001
6.483123e+002,2.874837e+001
6.492766e+002,2.915085e+001
6.502408e+002,2.905047e+001
6.512051e+002,2.814216e+001
6.521693e+002,2.806581e+001
6.531336e+002,2.800355e+001
6.540978e+002,2.724641e+001
6.550621e+002,2.704952e+001
6.560263e+002,2.662038e+001
6.569906e+002,2.651934e+001
6.579548e+002,2.767628e+001
6.589191e+002,2.834787e+001
6.598833e+002,2.819678e+001
6.608476e+002,2.782413e+001
6.618118e+002,2.704831e+001
6.627761e+002,2.628030e+001
6.637403e+002,2.659116e+001
6.647046e+002,2.717209e+001
6.656688e+002,2.749989e+001
6.666331e+002,2.758910e+001
6.675973e+002,2.773841e+001
6.685616e+002,2.775443e+001
6.695258e+002,2.787117e+001
6.704901e+002,2.807452e+001
6.714543e+002,2.843780e+001
6.724186e+002,2.866938e+001
6.733828e+002,2.833288e+001
6.743470e+002,2.828248e+001
6.753113e+002,2.876024e+001
6.762756e+002,2.859544e+001
6.772398e+002,2.808842e+001
6.782040e+002,2.722826e+001
6.791683e+002,2.705215e+001
6.801326e+002,2.773550e+001
6.810968e+002,2.796253e+001
6.820610e+002,2.789956e+001
6.830253e+002,2.749967e+001
6.839896e+002,2.784613e+001
6.849538e+002,2.835072e+001
6.859180e+002,2.888227e+001
6.868823e+002,2.836837e+001
6.878466e+002,2.760747e+001
6.888108e+002,2.782257e+001
6.897750e+002,2.802984e+001
6.907393e+002,2.832126e+001
6.917036e+002,2.845329e+001
6.926678e+002,2.753755e+001
6.936320e+002,2.799202e+001
6.945963e+002,2.871717e+001
6.955605e+002,2.859779e+001
6.965248e+002,2.795423e+001
6.974890e+002,2.827119e+001
6.984533e+002,2.900343e+001
6.994175e+002,2.839604e+001
7.003818e+002,2.754254e+001
7.013460e+002,2.781067e+001
7.023103e+002,2.710626e+001
7.032745e+002,2.652473e+001
7.042388e+002,2.602358e+001
7.052030e+002,2.670031e+001
7.061673e+002,2.671674e+001
7.071315e+002,2.707816e+001
7.080958e+002,2.765476e+001
7.090600e+002,2.827240e+001
7.100243e+002,2.726439e+001
7.109885e+002,2.664250e+001
7.119528e+002,2.618088e+001
7.129171e+002,2.626248e+001
7.138813e+002,3.356847e+001
7.148455e+002,5.672964e+001
7.158098e+002,5.032277e+001
7.167740e+002,3.399602e+001
7.177383e+002,2.902344e+001
7.187025e+002,2.633237e+001
7.196667e+002,2.741037e+001
7.206310e+002,2.799640e+001
7.215953e+002,2.766117e+001
7.225595e+002,2.557484e+001
7.235237e+002,2.583957e+001
7.244880e+002,2.762995e+001
7.254523e+002,3.058261e+001
7.264165e+002,2.954116e+001
7.273807e+002,2.842946e+001
7.283450e+002,2.777597e+001
7.293093e+002,2.784673e+001
7.302735e+002,2.690196e+001
7.312377e+002,2.667588e+001
7.322020e+002,2.644011e+001
7.331663e+002,2.706780e+001
7.341305e+002,2.770066e+001
7.350947e+002,2.726990e+001
7.360590e+002,2.648896e+001
7.370233e+002,2.748483e+001
7.379875e+002,2.719550e+001
7.389517e+002,2.565301e+001
7.399160e+002,2.552806e+001
7.408802e+002,2.651013e+001
7.418445e+002,2.745913e+001
7.428088e+002,2.777813e+001
7.437730e+002,2.701310e+001
7.447372e+002,2.663372e+001
7.457015e+002,2.608180e+001
7.466658e+002,2.654908e+001
7.476300e+002,2.697226e+001
7.485942e+002,2.668760e+001
7.495585e+002,2.587244e+001
7.505228e+002,2.619922e+001
7.514870e+002,2.667743e+001
7.524512e+002,2.699632e+001
7.534155e+002,2.745701e+001
7.543798e+002,2.843320e+001
7.553440e+002,2.819605e+001
7.563082e+002,2.711798e+001
7.572725e+002,2.582568e+001
7.582368e+002,2.544735e+001
7.592010e+002,2.575816e+001
7.601652e+002,2.656293e+001
7.611295e+002,2.636472e+001
7.620938e+002,2.606560e+001
7.630580e+002,2.598799e+001
7.640222e+002,2.590412e+001
7.649865e+002,2.617716e+001
7.659507e+002,2.684020e+001
7.669150e+002,2.634903e+001
7.678792e+002,2.618887e+001
7.688434e+002,2.632632e+001
7.698077e+002,2.646124e+001
7.707720e+002,2.637841e+001
7.717362e+002,2.621912e+001
7.727005e+002,2.619647e+001
7.736647e+002,2.789473e+001
7.746290e+002,2.827145e+001
7.755932e+002,2.667275e+001
7.765575e+002,2.631095e+001
7.775217e+002,2.569380e+001
7.784860e+002,2.538824e+001
7.794502e+002,2.560854e+001
7.804145e+002,2.491269e+001
7.813787e+002,2.546159e+001
7.823430e+002,3.171996e+001
7.833072e+002,3.943274e+001
7.842715e+002,3.176665e+001
7.852357e+002,2.628922e+001
7.862000e+002,2.605173e+001
7.871642e+002,2.595271e+001
7.881285e+002,2.606987e+001
7.890927e+002,2.671197e+001
7.900569e+002,2.728758e+001
7.910212e+002,2.653296e+001
7.919855e+002,2.504798e+001
7.929497e+002,2.465635e+001
7.939139e+002,2.532973e+001
7.948782e+002,2.699500e+001
7.958425e+002,2.741838e+001
7.968067e+002,2.711796e+001
7.977709e+002,2.662951e+001
7.987352e+002,2.658455e+001
7.996995e+002,2.610378e+001
8.006637e+002,2.532060e+001
8.016279e+002,2.558013e+001
8.025922e+002,2.686329e+001
8.035565e+002,2.593489e+001
8.045207e+002,2.435465e+001
8.054849e+002,2.442308e+001
8.064492e+002,2.652583e+001
8.074135e+002,2.643879e+001
8.083777e+002,2.543061e+001
8.093419e+002,2.546989e+001
8.103062e+002,2.580892e+001
8.112704e+002,2.512386e+001
8.122347e+002,2.430304e+001
8.131989e+002,2.484838e+001
8.141632e+002,2.674284e+001
8.151274e+002,2.707663e+001
8.160917e+002,2.562750e+001
8.170559e+002,2.514550e+001
8.180202e+002,2.591954e+001
8.189844e+002,2.628263e+001
8.199487e+002,2.647607e+001
8.209129e+002,2.603234e+001
8.218772e+002,2.575350e+001
8.228414e+002,2.492988e+001
8.238057e+002,2.531638e+001
8.247699e+002,2.548507e+001
8.257342e+002,2.552759e+001
8.266984e+002,2.642649e+001
8.276627e+002,2.619095e+001
8.286269e+002,2.584194e+001
8.295912e+002,2.575597e+001
8.305554e+002,2.513760e+001
8.315197e+002,2.518885e+001
8.324839e+002,2.563661e+001
8.334482e+002,2.669748e+001
8.344124e+002,2.617039e+001
8.353766e+002,2.515908e+001
8.363409e+002,2.542425e+001
8.373052e+002,2.606449e+001
8.382694e+002,2.657824e+001
8.392336e+002,2.590343e+001
8.401979e+002,2.555344e+001
8.411622e+002,2.581730e+001
8.421264e+002,2.602601e+001
8.430906e+002,2.627615e+001
8.440549e+002,2.561125e+001
8.450192e+002,2.439081e+001
8.459834e+002,2.497581e+001
8.469476e+002,2.542329e+001
8.479119e+002,2.522250e+001
8.488762e+002,2.534804e+001
8.498404e+002,2.597550e+001
8.508046e+002,2.701310e+001
8.517689e+002,2.650745e+001
8.527332e+002,2.519670e+001
8.536974e+002,2.507401e+001
8.546616e+002,2.584964e+001
8.556259e+002,2.615738e+001
8.565901e+002,2.571007e+001
8.575544e+002,2.538918e+001
8.585186e+002,2.528683e+001
8.594829e+002,2.437020e+001
8.604471e+002,2.397481e+001
8.614114e+002,2.437973e+001
8.623756e+002,2.419717e+001
8.633399e+002,2.394834e+001
8.643041e+002,2.410364e+001
8.652684e+002,2.536538e+001
8.662327e+002,2.617568e+001
8.671969e+002,2.565439e+001
8.681611e+002,2.444349e+001
8.691254e+002,2.418831e+001
8.700897e+002,2.549705e+001
8.710539e+002,2.544308e+001
8.720181e+002,2.461200e+001
8.729824e+002,2.475818e+001
8.739467e+002,2.531206e+001
8.749109e+002,2.515522e+001
8.758751e+002,2.490966e+001
8.768394e+002,2.456278e+001
8.778036e+002,2.444979e+001
8.787679e+002,2.460536e+001
8.797321e+002,2.474712e+001
8.806964e+002,2.446410e+001
8.816606e+002,2.448776e+001
8.826249e+002,2.462969e+001
8.835891e+002,2.525592e+001
8.845533e+002,2.531003e+001
8.855176e+002,2.539392e+001
8.864819e+002,2.512650e+001
8.874461e+002,2.512404e+001
8.884103e+002,2.580006e+001
8.893746e+002,2.612474e+001
8.903389e+002,2.568436e+001
8.913031e+002,2.499405e+001
8.922673e+002,2.528665e+001
8.932316e+002,2.526600e+001
8.941959e+002,3.086287e+001
8.951601e+002,3.725275e+001
8.961244e+002,2.950475e+001
8.970886e+002,2.393195e+001
8.980529e+002,2.164766e+001
8.990171e+002,2.292174e+001
8.999814e+002,2.492685e+001
9.009456e+002,2.566031e+001
9.019099e+002,2.564713e+001
9.028741e+002,2.496020e+001
9.038384e+002,2.426634e+001
9.048026e+002,2.508687e+001
9.057668e+002,2.511477e+001
9.067311e+002,2.426209e+001
9.076954e+002,2.403170e+001
9.086596e+002,2.493611e+001
9.096238e+002,2.650004e+001
9.105881e+002,2.975030e+001
9.115524e+002,3.058311e+001
9.125166e+002,2.696133e+001
9.134808e+002,2.505935e+001
9.144451e+002,2.458395e+001
9.154094e+002,2.491957e+001
9.163736e+002,2.510164e+001
9.173378e+002,2.398228e+001
9.183021e+002,2.446018e+001
9.192664e+002,2.460771e+001
9.202306e+002,2.358169e+001
9.211948e+002,2.304204e+001
9.221591e+002,2.366495e+001
9.231234e+002,2.534973e+001
9.240876e+002,2.560048e+001
9.250518e+002,2.405031e+001
9.260161e+002,2.374453e+001
9.269803e+002,2.491200e+001
9.279446e+002,2.488421e+001
9.289088e+002,2.504877e+001
9.298731e+002,2.497747e+001
9.308373e+002,2.450434e+001
9.318016e+002,2.412000e+001
9.327658e+002,2.492851e+001
9.337301e+002,2.497273e+001
9.346943e+002,2.448247e+001
9.356586e+002,2.472960e+001
9.366228e+002,2.461236e+001
9.375871e+002,2.446281e+001
9.385513e+002,2.492150e+001
9.395156e+002,2.537583e+001
9.404798e+002,2.512744e+001
9.414441e+002,2.540028e+001
9.424083e+002,2.551798e+001
9.433726e+002,2.536887e+001
9.443368e+002,2.560349e+001
9.453011e+002,2.621973e+001
9.462653e+002,2.606757e+001
9.472296e+002,2.596428e+001
9.481938e+002,2.513064e+001
9.491581e+002,2.393681e+001
9.501223e+002,2.350469e+001
9.510865e+002,2.378533e+001
9.520508e+002,2.515997e+001
9.530151e+002,2.570123e+001
9.539793e+002,2.538883e+001
9.549435e+002,2.532490e+001
9.559078e+002,2.502558e+001
9.568721e+002,2.486084e+001
9.578363e+002,2.431208e+001
9.588005e+002,2.461170e+001
9.597648e+002,2.471141e+001
9.607291e+002,2.523295e+001
9.616933e+002,2.557938e+001
9.626575e+002,2.513581e+001
9.636218e+002,2.566144e+001
9.645861e+002,2.544522e+001
9.655503e+002,2.496867e+001
9.665145e+002,2.519954e+001
9.674788e+002,2.504747e+001
9.684431e+002,2.549945e+001
9.694073e+002,2.659403e+001
9.703715e+002,2.666708e+001
9.713358e+002,2.584010e+001
9.723000e+002,2.484774e+001
9.732643e+002,2.455463e+001
9.742285e+002,2.539285e+001
9.751928e+002,2.513241e+001
9.761570e+002,2.458740e+001
9.771213e+002,2.422390e+001
9.780855e+002,2.371759e+001
9.790498e+002,2.437477e+001
9.800140e+002,2.421870e+001
9.809783e+002,2.376826e+001
9.819425e+002,2.504414e+001
9.829068e+002,2.564789e+001
9.838710e+002,2.472062e+001
9.848353e+002,2.376430e+001
9.857995e+002,2.406222e+001
9.867638e+002,2.521505e+001
9.877280e+002,2.574764e+001
9.886923e+002,2.596075e+001
9.896566e+002,2.549076e+001
9.906208e+002,2.467291e+001
9.915850e+002,2.413297e+001
9.925493e+002,2.414557e+001
9.935135e+002,2.335851e+001
9.944778e+002,2.289514e+001
9.954420e+002,2.380763e+001
9.964063e+002,2.393558e+001
9.973705e+002,2.394584e+001
9.983348e+002,2.320925e+001
9.992990e+002,2.394135e+001
1.000263e+003,2.561797e+001
1.001228e+003,2.585772e+001
1.002192e+003,2.424785e+001
1.003156e+003,2.448548e+001
1.004120e+003,2.498540e+001
1.005085e+003,2.445092e+001
1.006049e+003,2.396155e+001
1.007013e+003,2.474270e+001
1.007977e+003,2.543596e+001
1.008942e+003,2.485784e+001
1.009906e+003,2.432924e+001
1.010870e+003,2.400478e+001
1.011834e+003,2.403319e+001
1.012799e+003,2.449098e+001
1.013763e+003,2.532102e+001
1.014727e+003,2.527204e+001
1.015691e+003,2.582946e+001
1.016656e+003,2.548687e+001
1.017620e+003,2.405303e+001
1.018584e+003,2.440399e+001
1.019548e+003,2.478829e+001
1.020513e+003,2.443820e+001
1.021477e+003,2.377321e+001
1.022441e+003,2.428423e+001
1.023405e+003,2.534381e+001
1.024370e+003,2.422674e+001
1.025334e+003,2.466076e+001
1.026298e+003,2.542366e+001
1.027262e+003,2.433466e+001
1.028226e+003,2.408908e+001
1.029191e+003,2.462753e+001
1.030155e+003,2.515738e+001
1.031119e+003,2.471624e+001
1.032083e+003,2.436944e+001
1.033048e+003,2.481840e+001
1.034012e+003,2.417305e+001
1.034976e+003,2.385004e+001
1.035940e+003,2.461138e+001
1.036905e+003,2.423796e+001
1.037869e+003,2.396468e+001
1.038833e+003,2.408373e+001
1.039797e+003,2.424296e+001
1.040762e+003,2.454279e+001
1.041726e+003,2.474862e+001
1.042690e+003,2.456714e+001
1.043654e+003,2.530893e+001
1.044619e+003,2.549808e+001
1.045583e+003,2.437911e+001
1.046547e+003,2.308990e+001
1.047511e+003,2.413547e+001
1.048476e+003,2.739310e+001
1.049440e+003,3.303162e+001
1.050404e+003,3.077478e+001
1.051369e+003,2.572022e+001
1.052333e+003,2.394576e+001
1.053297e+003,2.371811e+001
1.054261e+003,2.355292e+001
1.055225e+003,2.294924e+001
1.056190e+003,2.336322e+001
1.057154e+003,2.384076e+001
1.058118e+003,2.367299e+001
1.059083e+003,2.372380e+001
1.060047e+003,2.390529e+001
1.061011e+003,2.397950e+001
1.061975e+003,2.351138e+001
1.062939e+003,2.384798e+001
1.063904e+003,2.420399e+001
1.064868e+003,2.451978e+001
1.065832e+003,2.524678e+001
1.066797e+003,2.515438e+001
1.067761e+003,2.395830e+001
1.068725e+003,2.448372e+001
1.069689e+003,2.454965e+001
1.070653e+003,2.423572e+001
1.071618e+003,2.507236e+001
1.072582e+003,2.576023e+001
1.073546e+003,2.621292e+001
1.074510e+003,2.565806e+001
1.075475e+003,2.483749e+001
1.076439e+003,2.455892e+001
1.077403e+003,2.443984e+001
1.078367e+003,2.446223e+001
1.079332e+003,2.433307e+001
1.080296e+003,2.479259e+001
1.081260e+003,2.532460e+001
1.082224e+003,2.478353e+001
1.083189e+003,2.318495e+001
1.084153e+003,2.279279e+001
1.085117e+003,2.372255e+001
1.086081e+003,2.419739e+001
1.087046e+003,2.393432e+001
1.088010e+003,2.438525e+001
1.088974e+003,2.550326e+001
1.089938e+003,2.541816e+001
1.090903e+003,2.444815e+001
1.091867e+003,2.418789e+001
1.092831e+003,2.483060e+001
1.093795e+003,2.536011e+001
1.094760e+003,2.495387e+001
1.095724e+003,2.434782e+001
1.096688e+003,2.355528e+001
1.097652e+003,2.408433e+001
1.098617e+003,2.487248e+001
1.099581e+003,2.499292e+001
1.100545e+003,2.423716e+001
1.101509e+003,2.413444e+001
1.102474e+003,2.435481e+001
1.103438e+003,2.525480e+001
1.104402e+003,2.607146e+001
1.105366e+003,3.259687e+001
1.106331e+003,3.532767e+001
1.107295e+003,2.813056e+001
1.108259e+003,2.571922e+001
1.109223e+003,2.522568e+001
1.110188e+003,2.469827e+001
1.111152e+003,2.388843e+001
1.112116e+003,2.413710e+001
1.113080e+003,2.625555e+001
1.114045e+003,2.680826e+001
1.115009e+003,2.516199e+001
1.115973e+003,2.578539e+001
1.116937e+003,2.652121e+001
1.117902e+003,2.645127e+001
1.118866e+003,2.592734e+001
1.119830e+003,2.509996e+001
1.120794e+003,2.466901e+001
1.121759e+003,2.527333e+001
1.122723e+003,2.494453e+001
1.123687e+003,2.519470e+001
1.124651e+003,2.556611e+001
1.125616e+003,2.485448e+001
1.126580e+003,2.506781e+001
1.127544e+003,2.518155e+001
1.128508e+003,2.477836e+001
1.129473e+003,2.422933e+001
1.130437e+003,2.398958e+001
1.131401e+003,2.514989e+001
1.132365e+003,2.600152e+001
1.133330e+003,2.564292e+001
1.134294e+003,2.489491e+001
1.135258e+003,2.459271e+001
1.136222e+003,2.474859e+001
1.137187e+003,2.527516e+001
1.138151e+003,2.510696e+001
1.139115e+003,2.467672e+001
1.140079e+003,2.557271e+001
1.141044e+003,2.562889e+001
1.142008e+003,2.435454e+001
1.142972e+003,2.383961e+001
1.143936e+003,2.409568e+001
1.144901e+003,2.444297e+001
1.145865e+003,2.457361e+001
1.146829e+003,2.462817e+001
1.147793e+003,2.472327e+001
1.148758e+003,2.413482e+001
1.149722e+003,2.423813e+001
1.150686e+003,2.484596e+001
1.151650e+003,2.510879e+001
1.152615e+003,2.491924e+001
1.153579e+003,2.495031e+001
1.154543e+003,2.622028e+001
1.155507e+003,2.546955e+001
1.156472e+003,2.423506e+001
1.157436e+003,2.441578e+001
1.158400e+003,2.523063e+001
1.159364e+003,2.454189e+001
1.160329e+003,2.311812e+001
1.161293e+003,2.327489e+001
1.162257e+003,2.386016e+001
1.163221e+003,2.391018e+001
1.164186e+003,2.389089e+001
1.165150e+003,2.339158e+001
1.166114e+003,2.395124e+001
1.167078e+003,2.429603e+001
1.168043e+003,2.400486e+001
1.169007e+003,2.403342e+001
1.169971e+003,2.443302e+001
1.170935e+003,2.452869e+001
1.171900e+003,2.437437e+001
1.172864e+003,2.416409e+001
1.173828e+003,2.350413e+001
1.174792e+003,2.224829e+001
1.175757e+003,2.219001e+001
1.176721e+003,2.286921e+001
1.177685e+003,2.351887e+001
1.178649e+003,2.396440e+001
1.179614e+003,2.400653e+001
1.180578e+003,2.406342e+001
1.181542e+003,2.419909e+001
1.182506e+003,2.401255e+001
1.183471e+003,2.412466e+001
1.184435e+003,2.463990e+001
1.185399e+003,2.429543e+001
1.186363e+003,2.442503e+001
1.187328e+003,2.482994e+001
1.188292e+003,2.391539e+001
1.189256e+003,2.294069e+001
1.190220e+003,2.335187e+001
1.191185e+003,2.437399e+001
1.192149e+003,2.400820e+001
1.193113e+003,2.381550e+001
1.194077e+003,2.377428e+001
1.195042e+003,2.354219e+001
1.196006e+003,2.467564e+001
1.196970e+003,2.510118e+001
1.197934e+003,2.495338e+001
1.198899e+003,2.550672e+001
1.199863e+003,2.471878e+001
1.200827e+003,2.337532e+001
1.201791e+003,2.333016e+001
1.202756e+003,2.439536e+001
1.203720e+003,2.503678e+001
1.204684e+003,2.475138e+001
1.205648e+003,2.538856e+001
1.206613e+003,2.549503e+001
1.207577e+003,2.496353e+001
1.208541e+003,2.439397e+001
1.209505e+003,2.367022e+001
1.210470e+003,2.418094e+001
1.211434e+003,2.483304e+001
1.212398e+003,2.490708e+001
1.213362e+003,2.459515e+001
1.214327e+003,2.472099e+001
1.215291e+003,2.448986e+001
1.216255e+003,2.362080e+001
1.217219e+003,2.299252e+001
1.218184e+003,2.376518e+001
1.219148e+003,2.443909e+001
1.220112e+003,2.392975e+001
1.221076e+003,2.289220e+001
1.222041e+003,2.342864e+001
1.223005e+003,2.332897e+001
1.223969e+003,2.358578e+001
1.224933e+003,2.468339e+001
1.225898e+003,2.475883e+001
1.226862e+003,2.316674e+001
1.227826e+003,2.267172e+001
1.228790e+003,2.389990e+001
1.229755e+003,2.440573e+001
1.230719e+003,2.351644e+001
1.231683e+003,2.327960e+001
1.232647e+003,2.440270e+001
1.233612e+003,2.460142e+001
1.234576e+003,2.385850e+001
1.235540e+003,2.476383e+001
1.236504e+003,2.524329e+001
1.237469e+003,2.441940e+001
1.238433e+003,2.396957e+001
1.239397e+003,2.484064e+001
1.240361e+003,2.473772e+001
1.241326e+003,2.421912e+001
1.242290e+003,2.377782e+001
1.243254e+003,2.417473e+001
1.244218e+003,2.365249e+001
1.245182e+003,2.376286e+001
1.246147e+003,2.481282e+001
1.247111e+003,2.389830e+001
1.248075e+003,2.305753e+001
1.249040e+003,2.312004e+001
1.250004e+003,2.362601e+001
1.250968e+003,2.447346e+001
1.251932e+003,2.431311e+001
1.252896e+003,2.454276e+001
1.253861e+003,2.506571e+001
1.254825e+003,2.371692e+001
1.255789e+003,2.348481e+001
1.256754e+003,2.484447e+001
1.257718e+003,2.446826e+001
1.258682e+003,2.402349e+001
1.259646e+003,2.465121e+001
1.260610e+003,2.433507e+001
1.261575e+003,2.375061e+001
1.262539e+003,2.455805e+001
1.263503e+003,2.460192e+001
1.264468e+003,2.432781e+001
1.265432e+003,2.386664e+001
1.266396e+003,2.318831e+001
1.267360e+003,2.295403e+001
1.268325e+003,2.359959e+001
1.269289e+003,2.420774e+001
1.270253e+003,2.454841e+001
1.271217e+003,2.378475e+001
1.272182e+003,2.337606e+001
1.273146e+003,2.317125e+001
1.274110e+003,2.292447e+001
1.275074e+003,2.302781e+001
1.276039e+003,2.301602e+001
1.277003e+003,2.318090e+001
1.277967e+003,2.379828e+001
1.278931e+003,2.563765e+001
1.279896e+003,2.623660e+001
1.280860e+003,2.487648e+001
1.281824e+003,2.415115e+001
1.282788e+003,2.402631e+001
1.283753e+003,2.388916e+001
1.284717e+003,2.417687e+001
1.285681e+003,2.494335e+001
1.286645e+003,2.477374e+001
1.287609e+003,2.426812e+001
1.288574e+003,2.335115e+001
1.289538e+003,2.308084e+001
1.290502e+003,2.315213e+001
1.291467e+003,2.367257e+001
1.292431e+003,2.351577e+001
1.293395e+003,2.369558e+001
1.294359e+003,2.403667e+001
1.295323e+003,2.373787e+001
1.296288e+003,2.380910e+001
1.297252e+003,2.473251e+001
1.298216e+003,2.451595e+001
1.299181e+003,2.367890e+001
1.300145e+003,2.395444e+001
1.301109e+003,2.412474e+001
1.302073e+003,2.369935e+001
1.303037e+003,2.347686e+001
1.304002e+003,2.376965e+001
1.304966e+003,2.404457e+001
1.305930e+003,2.421181e+001
1.306895e+003,2.519071e+001
1.307859e+003,2.573065e+001
1.308823e+003,2.445103e+001
1.309787e+003,2.276440e+001
1.310751e+003,2.304657e+001
1.311716e+003,2.437360e+001
1.312680e+003,2.523606e+001
1.313644e+003,2.479458e+001
1.314609e+003,2.381032e+001
1.315573e+003,2.484928e+001
1.316537e+003,2.474832e+001
1.317501e+003,2.364783e+001
1.318465e+003,2.354019e+001
1.319430e+003,2.398614e+001
1.320394e+003,2.417072e+001
1.321358e+003,2.339373e+001
1.322323e+003,2.381703e+001
1.323287e+003,2.529580e+001
1.324251e+003,2.616541e+001
1.325215e+003,2.562818e+001
1.326179e+003,2.437487e+001
1.327144e+003,2.336496e+001
1.328108e+003,2.277098e+001
1.329072e+003,2.312406e+001
1.330036e+003,2.292851e+001
1.331001e+003,2.327400e+001
1.331965e+003,2.445844e+001
1.332929e+003,2.506996e+001
1.333893e+003,2.484232e+001
1.334858e+003,2.424650e+001
1.335822e+003,2.427732e+001
1.336786e+003,2.406556e+001
1.337750e+003,2.287958e+001
1.338715e+003,2.328674e+001
1.339679e+003,2.489306e+001
1.340643e+003,2.507353e+001
1.341607e+003,2.426289e+001
1.342572e+003,2.333182e+001
1.343536e+003,2.348946e+001
1.344500e+003,2.376506e+001
1.345464e+003,2.382093e+001
1.346429e+003,2.506314e+001
1.347393e+003,2.578297e+001
1.348357e+003,2.463361e+001
1.349321e+003,2.387509e+001
1.350286e+003,2.363137e+001
1.351250e+003,2.372968e+001
1.352214e+003,2.421854e+001
1.353178e+003,2.486808e+001
1.354143e+003,2.503886e+001
1.355107e+003,2.501207e+001
1.356071e+003,2.462645e+001
1.357035e+003,2.431645e+001
1.358000e+003,2.463674e+001
1.358964e+003,2.457707e+001
1.359928e+003,2.386283e+001
1.360892e+003,2.439481e+001
1.361857e+003,2.478994e+001
1.362821e+003,2.470356e+001
1.363785e+003,2.400907e+001
1.364749e+003,2.267769e+001
1.365714e+003,2.257595e+001
1.366678e+003,2.339365e+001
1.367642e+003,2.358164e+001
1.368606e+003,2.378205e+001
1.369571e+003,2.503365e+001
1.370535e+003,2.474437e+001
1.371499e+003,2.334544e+001
1.372463e+003,2.353713e+001
1.373428e+003,2.462753e+001
1.374392e+003,2.559368e+001
1.375356e+003,2.490672e+001
1.376320e+003,2.395615e+001
1.377285e+003,2.314929e+001
1.378249e+003,2.327736e+001
1.379213e+003,2.439558e+001
1.380177e+003,2.452502e+001
1.381142e+003,2.405271e+001
1.382106e+003,2.328457e+001
1.383070e+003,2.301559e+001
1.384034e+003,2.380381e+001
